timestamp,value-0,is_anomaly
0,0.4215370595616595,0.0
1,3.6239980553031246,0.0
2,7.024751073327552,0.0
3,-0.11496408645517389,0.0
4,-1.8771679891981912,0.0
5,1.6411096624192176,0.0
6,-0.6518712894869455,0.0
7,0.17237607603704364,0.0
8,0.11747477327237522,0.0
9,0.09667676612616044,0.0
10,0.09197290854817965,0.0
11,0.009028966259553031,0.0
12,0.08487781549413027,0.0
13,0.028224335354298566,0.0
14,0.07942280442568952,0.0
15,0.049618142485593014,0.0
16,0.04444985409225262,0.0
17,0.14785256102738556,0.0
18,0.15355123135535337,0.0
19,0.08122872568254716,0.0
20,0.320369515897528,0.0
21,3.583958224739737,0.0
22,7.024867721641135,0.0
23,-0.1755886343823144,0.0
24,-1.8641854385738514,0.0
25,1.6406981151816828,0.0
26,-0.6434922326538345,0.0
27,0.1111749808597123,0.0
28,-0.009023023461880997,0.0
29,-0.038497448148071836,0.0
30,0.06441289507217385,0.0
31,0.1280653043603203,0.0
32,0.07957197876600461,0.0
33,0.08630267857759369,0.0
34,0.01508576638205001,0.0
35,0.03509204881781383,0.0
36,-0.05815636658855584,0.0
37,0.019079470465996173,0.0
38,-0.02252100885721018,0.0
39,-0.03672668157328262,0.0
40,0.23207076887804784,0.0
41,3.5570886792208842,0.0
42,6.874610051147994,0.0
43,-0.2373711310116783,0.0
44,-1.846869072827796,0.0
45,1.595756580332087,0.0
46,-0.7376633207613712,0.0
47,0.19100034647217365,0.0
48,-0.0075035617767895135,0.0
49,0.08531750896946287,0.0
50,0.07172202036936087,0.0
51,-0.0307330041197679,0.0
52,0.07449066318801427,0.0
53,0.022892238813720444,0.0
54,0.03540100273321435,0.0
55,0.10257757858668726,0.0
56,-0.009901525843694414,0.0
57,0.001388567462368935,0.0
58,-0.04661674705053423,0.0
59,0.0188882010418723,0.0
60,0.2902327175629096,0.0
61,3.4941284857612107,0.0
62,6.847005882899152,0.0
63,-0.24891510424716254,0.0
64,-1.9342929355237175,0.0
65,1.5738855974546835,0.0
66,-0.7727115603768069,0.0
67,0.15070451671668786,0.0
68,-0.0047408888867093366,0.0
69,-0.006940984836728108,0.0
70,0.016752679478892564,0.0
71,0.035614697877764175,0.0
72,-0.01057364867641493,0.0
73,-0.06166307864957718,0.0
74,-0.0050587803126351345,0.0
75,-0.015391251825617461,0.0
76,-0.10274514937223722,0.0
77,0.015612688537857064,0.0
78,-0.03888575054405038,0.0
79,-0.0646723030189309,0.0
80,0.3895015899707386,0.0
81,3.464010687441379,0.0
82,6.747963798234327,0.0
83,-0.3316794300243532,0.0
84,-2.034131973185313,0.0
85,1.5883968700779418,0.0
86,-0.7224496570977516,0.0
87,0.012391642046038973,0.0
88,-0.06144453377994218,0.0
89,-0.13462026995252435,0.0
90,-0.012254556907321476,0.0
91,0.01269064325162366,0.0
92,-0.04616675099096303,0.0
93,-0.0683822918909999,0.0
94,0.023384154960444554,0.0
95,-0.046879110165919294,0.0
96,-0.06654890804298269,0.0
97,0.04857187143671354,0.0
98,0.0411028075661876,0.0
99,-0.07252281529891051,0.0
100,0.347384360294931,0.0
101,3.525260459285361,0.0
102,6.928058050077764,0.0
103,-0.309493836048001,0.0
104,-2.0101106440844623,0.0
105,1.5567273955375585,0.0
106,-0.7243434289861075,0.0
107,0.1344628871178718,0.0
108,-0.016793004614985122,0.0
109,-0.04959804858408995,0.0
110,0.05400938577964556,0.0
111,-0.12707982557056133,0.0
112,0.0059789396211472196,0.0
113,-0.03244976396574771,0.0
114,-0.08149197725971681,0.0
115,-0.05835075791916618,0.0
116,-0.16455329578232356,0.0
117,-0.0015707188263347285,0.0
118,-0.029624848563328535,0.0
119,-0.09570271065396918,0.0
120,0.25657127384325307,0.0
121,3.4422353114220745,0.0
122,6.8970975516378985,0.0
123,-0.21696642087810936,0.0
124,-1.953393979861048,0.0
125,1.5620974627142252,0.0
126,-0.77163560613135,0.0
127,0.14593661548976716,0.0
128,-0.04144569847978088,0.0
129,-0.17159593300668738,0.0
130,0.005866444767753557,0.0
131,-0.06068757036094779,0.0
132,0.04660427626816073,0.0
133,-0.05301524629187089,0.0
134,-0.04462025160894471,0.0
135,-0.084005471889785,0.0
136,-0.020056632505796736,0.0
137,-0.056105296117975795,0.0
138,-0.028375965874400208,0.0
139,-0.06490858756894867,0.0
140,0.1950173411323052,0.0
141,3.453269778456079,0.0
142,6.7262006666111915,0.0
143,-0.3315433924222113,0.0
144,-1.9644096892843634,0.0
145,1.5025442987609932,0.0
146,-0.7944701655232572,0.0
147,0.0663385116936201,0.0
148,0.0051862163495066844,0.0
149,-0.061309381210336536,0.0
150,0.08357532546233003,0.0
151,-0.08623487663213636,0.0
152,-0.027335361281726124,0.0
153,-0.022964636875167723,0.0
154,0.01948603426778757,0.0
155,0.08399122338146206,0.0
156,-0.009188249470730051,0.0
157,0.009475837655880217,0.0
158,0.05433326599995181,0.0
159,0.01613292691266458,0.0
160,0.34277315023459776,0.0
161,3.5937980323108754,0.0
162,6.86156230703263,0.0
163,-0.2441483799565774,0.0
164,-1.8692138364325883,0.0
165,1.560359229965358,0.0
166,-0.6111350803876455,0.0
167,0.1522264771004251,0.0
168,0.1794580730432475,0.0
169,-0.05121190011711106,0.0
170,-0.029248872255571316,0.0
171,-0.009626528082511989,0.0
172,0.006698119392865442,0.0
173,0.029332894552790298,0.0
174,-0.04145658568074567,0.0
175,0.0072749448500440995,0.0
176,-0.044834010282911854,0.0
177,-0.06013216111975659,0.0
178,0.038958339946937356,0.0
179,0.03278275976348997,0.0
180,0.24189560625441822,0.0
181,3.461385419617259,0.0
182,6.820877923720206,0.0
183,-0.28594786118090887,0.0
184,-1.9747990428372655,0.0
185,1.5458722195014636,0.0
186,-0.8104850754665536,0.0
187,0.06653030589049834,0.0
188,-0.0032612912754639185,0.0
189,-0.0005814710142183072,0.0
190,0.050781481338542545,0.0
191,-0.09886887934626473,0.0
192,-0.09033614971798745,0.0
193,0.017692787964433167,0.0
194,0.0367897169811436,0.0
195,0.04576965646463454,0.0
196,-0.0007816250715748565,0.0
197,-0.012623346055378348,0.0
198,-0.019694232367100536,0.0
199,-0.06557139658797295,0.0
200,0.24594089555300988,0.0
201,3.521328776431735,0.0
202,6.767201371907148,0.0
203,-0.3345362172416959,0.0
204,-1.9239629995706662,0.0
205,1.4926285072398273,0.0
206,-0.7329861727668012,0.0
207,0.11982751579210449,0.0
208,-0.044560377601898966,0.0
209,-0.18234343004261205,0.0
210,0.027309360364544403,0.0
211,-0.027695078952234657,0.0
212,0.07507729756857155,0.0
213,-0.011514991551059976,0.0
214,0.018537364226513302,0.0
215,-0.003347215233254132,0.0
216,-0.04033389174005806,0.0
217,-0.07849205701301169,0.0
218,-0.01990040867622515,0.0
219,-0.047918028186887215,0.0
220,0.2935735105653835,0.0
221,3.5834470164110437,0.0
222,6.948889027817896,0.0
223,-0.26146235346748126,0.0
224,-1.8971863982589083,0.0
225,1.6054379814729682,0.0
226,-0.6871411757661865,0.0
227,0.10185183783303701,0.0
228,0.06404578022091319,0.0
229,0.005194798391135347,0.0
230,0.0030871548109937235,0.0
231,-0.05514200653617457,0.0
232,0.018851284189663337,0.0
233,0.07465021742276821,0.0
234,-0.05195171630299653,0.0
235,0.017857992175713926,0.0
236,0.03565676063787705,0.0
237,-0.060093715802850556,0.0
238,-0.0862440345935429,0.0
239,-0.03931598156927558,0.0
240,0.2889901194499965,0.0
241,3.5845854148421195,0.0
242,6.8874105862436945,0.0
243,-0.29735997971981276,0.0
244,-1.9248310121273824,0.0
245,1.5147334077464836,0.0
246,-0.6987453969216194,0.0
247,0.0705428708437238,0.0
248,0.01292425658060647,0.0
249,-0.0029928566448637547,0.0
250,0.12651767537490127,0.0
251,0.00236878916798478,0.0
252,0.011423221003424086,0.0
253,-0.08356727960041493,0.0
254,0.07358638120819873,0.0
255,0.018880567883468237,0.0
256,0.0010925329688000953,0.0
257,0.021416931704742116,0.0
258,-0.032233257753775835,0.0
259,0.04162429260544977,0.0
260,0.2843732284575413,0.0
261,3.470865377458617,0.0
262,6.926699554797583,0.0
263,-0.2619174360743741,0.0
264,-1.9091599461883852,0.0
265,1.590593933135724,0.0
266,-0.7902563570893831,0.0
267,0.05933870864569776,0.0
268,-0.005811951106168407,0.0
269,-0.0380566713074563,0.0
270,0.04330210070741722,0.0
271,0.03914316627904578,0.0
272,0.10991665472410554,0.0
273,0.008666772685029332,0.0
274,-0.02376688928128033,0.0
275,0.022996135401787764,0.0
276,0.038882083394888065,0.0
277,-0.07194410918769278,0.0
278,0.0538366465405225,0.0
279,0.07912776251531514,0.0
280,0.2978029747740144,0.0
281,3.5543049308374752,0.0
282,6.805545141986641,0.0
283,-0.25760786504699645,0.0
284,-1.8951647908255616,0.0
285,1.6058394487539407,0.0
286,-0.6717459565866171,0.0
287,0.15576539613726365,0.0
288,0.011623145053857718,0.0
289,-0.10409237631730463,0.0
290,0.0671775934623268,0.0
291,-0.0058231998399037345,0.0
292,0.02191321708025293,0.0
293,0.042883324468584186,0.0
294,-0.08159070764682554,0.0
295,-0.034214672838168744,0.0
296,-0.11503005626743723,0.0
297,0.006838972570911848,0.0
298,0.07885923953291214,0.0
299,-0.04442729201058891,0.0
300,0.33247807834256826,0.0
301,3.5540175783278234,0.0
302,6.890313426991802,0.0
303,-0.31455559518530396,0.0
304,-1.8509313605783346,0.0
305,1.5485118202760768,0.0
306,-0.6812477073765537,0.0
307,0.20913254995611197,0.0
308,0.019780416286527415,0.0
309,-0.129473423053364,0.0
310,0.08776967332182087,0.0
311,-0.05718860847515708,0.0
312,-0.0653202806307146,0.0
313,-0.04834478753313629,0.0
314,-0.013838516609900944,0.0
315,0.0020676004131288117,0.0
316,-0.02499008815286119,0.0
317,0.010253379439051767,0.0
318,-0.09699886126225706,0.0
319,-0.1343596360868162,0.0
320,0.2641062833693084,0.0
321,3.58118698014115,0.0
322,6.855319158330619,0.0
323,-0.37546955648557606,0.0
324,-1.9470881227892158,0.0
325,1.5704436728078968,0.0
326,-0.7745126610058934,0.0
327,0.15622329379676791,0.0
328,0.0077681861805385215,0.0
329,0.011573388069482347,0.0
330,-0.0594377108176633,0.0
331,-0.003350948571801412,0.0
332,-0.017935541843991903,0.0
333,0.12583219096485598,0.0
334,-0.06065646552936324,0.0
335,-0.07665102380260816,0.0
336,-0.09071334256827165,0.0
337,-0.16369127693960803,0.0
338,-0.10746690657363933,0.0
339,0.024466008530349817,0.0
340,0.26108712086499697,0.0
341,3.492286657726393,0.0
342,6.87593411124599,0.0
343,-0.46664476616431927,0.0
344,-1.9005644877507573,0.0
345,1.4364940616459894,0.0
346,-0.7237101238537652,0.0
347,0.08199859108564875,0.0
348,0.013640756579352636,0.0
349,-0.024193125425154116,0.0
350,0.007462684326556807,0.0
351,0.0018092748395316,0.0
352,-0.10771592023227494,0.0
353,-0.04679499129922413,0.0
354,-0.07368423885183417,0.0
355,-0.052774809857762464,0.0
356,0.001993438809143617,0.0
357,0.016225546794767166,0.0
358,-0.041251098162036495,0.0
359,-0.03394698254481272,0.0
360,0.3328026938435823,0.0
361,3.545663195527859,0.0
362,6.846251024710754,0.0
363,-0.31878399160572113,0.0
364,-1.8732374463972923,0.0
365,1.536840095032445,0.0
366,-0.7467043447271611,0.0
367,0.18813265658470468,0.0
368,0.016185167214751897,0.0
369,-0.022952145736879193,0.0
370,0.06969086508207287,0.0
371,0.04885417068295472,0.0
372,0.005393925070165196,0.0
373,-0.05771252281118406,0.0
374,0.0689912400266598,0.0
375,-0.004413811150894502,0.0
376,0.039523623772122214,0.0
377,-0.027372558285788634,0.0
378,-0.03529144969576638,0.0
379,-0.030764756451424256,0.0
380,0.3398838892479361,0.0
381,3.5036938998629443,0.0
382,6.883445833439032,0.0
383,-0.3757982605730498,0.0
384,-1.8981897909422456,0.0
385,1.5571374275097938,0.0
386,-0.7181692612365109,0.0
387,0.19967856996128905,0.0
388,0.010343070487888725,0.0
389,0.04555914274097558,0.0
390,0.1447481551108036,0.0
391,-0.008043385589951657,0.0
392,0.10933431850490524,0.0
393,0.032541051665716976,0.0
394,0.04477488713979757,0.0
395,0.08958192580335522,0.0
396,0.20498592982824465,0.0
397,0.0521959094372255,0.0
398,0.009174516468600041,0.0
399,-0.035397013686059846,0.0
400,0.28104597087046235,0.0
401,3.6002386377033226,0.0
402,6.876415688653661,0.0
403,-0.4218481561947797,0.0
404,-1.9432993500536253,0.0
405,1.5098204030463025,0.0
406,-0.715023971272019,0.0
407,0.2563745399019862,0.0
408,0.003760167543572404,0.0
409,-0.08235217819071883,0.0
410,-0.012149085455797782,0.0
411,0.061693642152302476,0.0
412,0.07559985717333274,0.0
413,0.043260617190257686,0.0
414,-0.03186252911721962,0.0
415,-0.01631214612002293,0.0
416,0.05851544180054121,0.0
417,0.05265981800804833,0.0
418,0.033984460036409404,0.0
419,-0.029210623307910293,0.0
420,0.26302428583009013,0.0
421,3.5187073642303086,0.0
422,6.9325366558082635,0.0
423,-0.3175485231319677,0.0
424,-1.9490701065912484,0.0
425,1.6180695648660037,0.0
426,-0.724299180841113,0.0
427,0.09195791167792502,0.0
428,0.015417493544031002,0.0
429,-0.12681359090163474,0.0
430,-0.020308920679162547,0.0
431,0.04972159108074909,0.0
432,-0.09157230115227519,0.0
433,-0.00329990856864104,0.0
434,-0.012978441190185055,0.0
435,-0.02998124334218875,0.0
436,0.08482618472381585,0.0
437,0.03449631639592918,0.0
438,-0.03170207681068617,0.0
439,0.011702042921510232,0.0
440,0.2617990335676193,0.0
441,3.569699545113499,0.0
442,6.8558647313600725,0.0
443,-0.33824224363011024,0.0
444,-1.888465296269445,0.0
445,1.5815524091794304,0.0
446,-0.7402707263623781,0.0
447,0.16706640429537126,0.0
448,0.002462088352212906,0.0
449,-0.02518706059456363,0.0
450,0.1325517036094287,0.0
451,-0.0072654514677263915,0.0
452,0.043154096305406564,0.0
453,-0.06997320331862553,0.0
454,-0.06276663771138369,0.0
455,0.10311403103693587,0.0
456,-0.04017099334119169,0.0
457,0.006743363630316756,0.0
458,0.0340353656748693,0.0
459,-0.04518576483474511,0.0
460,0.21515220845514946,0.0
461,3.5733751497886055,0.0
462,6.819784449825404,0.0
463,-0.3743512469012943,0.0
464,-1.9534335911443899,0.0
465,1.494329156014601,0.0
466,-0.6618472578420398,0.0
467,0.18275717276633885,0.0
468,0.103223157269379,0.0
469,-0.07730699233754132,0.0
470,0.003969510318501429,0.0
471,-0.036665847811588,0.0
472,0.06480866349885933,0.0
473,-0.04959691296986254,0.0
474,-0.016330933430360697,0.0
475,0.024616547418182463,0.0
476,0.01522609344094054,0.0
477,-0.051135255710896554,0.0
478,-0.02115336693976242,0.0
479,0.0857677544440152,0.0
480,0.2748108515215575,0.0
481,3.479266217083961,0.0
482,6.808278661022466,0.0
483,-0.26389941980700404,0.0
484,-1.914308651217017,0.0
485,1.5249343165075067,0.0
486,-0.7629679321942172,0.0
487,0.17936023183378202,0.0
488,-0.06667976800485725,0.0
489,-0.056894007645687895,0.0
490,0.03015838167537679,0.0
491,0.02256725285212874,0.0
492,-0.02876167459559894,0.0
493,0.008676527829044014,0.0
494,-0.03952248757798605,0.0
495,-0.03138825301168043,0.0
496,0.05209924472795108,0.0
497,-0.01137653313936523,0.0
498,-0.0167608389379422,0.0
499,0.04045776681571678,0.0
500,0.2623831143418417,0.0
501,3.6391007711276875,0.0
502,6.854586138634992,0.0
503,-0.3750011026345216,0.0
504,-1.895331722183831,0.0
505,1.5559616635444544,0.0
506,-0.7648779070665279,0.0
507,0.035650651142773424,0.0
508,0.07515060690557261,0.0
509,-0.0046025961833899565,0.0
510,-0.06113889745904785,0.0
511,0.04767861049525635,0.0
512,-0.05467723955082895,0.0
513,-0.060862383086149066,0.0
514,0.07739831242198582,0.0
515,0.08079194087699562,0.0
516,0.024382600039139113,0.0
517,0.011491489291240477,0.0
518,-0.04658536957833877,0.0
519,-0.005733504761165809,0.0
520,0.23474176317097328,0.0
521,3.5756257680389827,0.0
522,6.808643250799992,0.0
523,-0.39435692613579565,0.0
524,-1.8854076384166336,0.0
525,1.4782477217780994,0.0
526,-0.7129712216204377,0.0
527,0.14070265160699894,0.0
528,0.018739799666334964,0.0
529,-0.07926219853043344,0.0
530,-0.08874447847973843,0.0
531,-0.0251454129842138,0.0
532,-0.060050121815005596,0.0
533,0.016318733073481098,0.0
534,-0.006204253601179731,0.0
535,0.02332719258779352,0.0
536,-0.012574928771455891,0.0
537,0.03481619254825289,0.0
538,-0.006074214736033815,0.0
539,0.004062718934609202,0.0
540,0.27306683494102374,0.0
541,3.5589688641549375,0.0
542,6.806185626453454,0.0
543,-0.30925789922923874,0.0
544,-1.8900067276781538,0.0
545,1.4841306398047722,0.0
546,-0.7468972806870271,0.0
547,0.19564430255107845,0.0
548,0.01901417671215724,0.0
549,-0.01038116784570138,0.0
550,-0.016793871019486456,0.0
551,0.00605411960818724,0.0
552,-0.10401860418435133,0.0
553,-0.029092211107512363,0.0
554,-0.10200103859954561,0.0
555,-0.04345404982228861,0.0
556,-0.008591802399090862,0.0
557,-9.64460299000651e-06,0.0
558,-0.022429892823841877,0.0
559,-0.01753818548452242,0.0
560,0.28541544557673254,0.0
561,3.6180717705870657,0.0
562,6.800847954283521,0.0
563,-0.45665721157760614,0.0
564,-1.9564579696304452,0.0
565,1.5034801475261597,0.0
566,-0.7048429828234279,0.0
567,0.16624371257177192,0.0
568,-0.08806015468100506,0.0
569,-0.04380097789076413,0.0
570,9.34587061943784e-05,0.0
571,-0.1540227523018153,0.0
572,0.014303031787455692,0.0
573,-0.06431459118530483,0.0
574,-0.06534390383751301,0.0
575,-0.05859283478526196,0.0
576,-0.04804648364080538,0.0
577,-0.06208238812611334,0.0
578,-0.19340293453181168,0.0
579,0.014392528784533034,0.0
580,0.19658875256684605,0.0
581,3.6273132656429548,0.0
582,6.839350370585973,0.0
583,-0.3804481663651358,0.0
584,-1.7995239992169219,0.0
585,1.669285437299275,0.0
586,-0.6857053266608942,0.0
587,0.10859041610320866,0.0
588,-0.08855669951268394,0.0
589,-0.06166485396062604,0.0
590,-0.011763024710726688,0.0
591,0.05351968979126715,0.0
592,-0.03845841602162507,0.0
593,0.0016213456621907082,0.0
594,0.06265042760992179,0.0
595,-0.00425772148071844,0.0
596,0.06775017786120158,0.0
597,-0.011054970360606745,0.0
598,-0.003847758929381072,0.0
599,-0.036357614691230014,0.0
600,0.2613189065487568,0.0
601,3.711403364120695,0.0
602,6.814707539006509,0.0
603,-0.4040433393841838,0.0
604,-1.8510774362017903,0.0
605,1.5309246207136022,0.0
606,-0.7000151623548881,0.0
607,0.1332600973899316,0.0
608,-0.016340677444931583,0.0
609,-0.010555389497843178,0.0
610,-0.0035979173719313667,0.0
611,-0.041104801692119865,0.0
612,0.026770659505238395,0.0
613,-0.003943636687262164,0.0
614,0.011076257573673398,0.0
615,0.0758513790320733,0.0
616,-0.02755050621249116,0.0
617,0.05884714562540206,0.0
618,-0.11912369798820006,0.0
619,-0.014880382551411525,0.0
620,0.28632840356653494,0.0
621,3.488247797022643,0.0
622,6.868931680688226,0.0
623,-0.5064442213130756,0.0
624,-1.9266889422141888,0.0
625,1.5198933847801035,0.0
626,-0.6705033292484919,0.0
627,0.12917449007864956,0.0
628,0.07702944887806862,0.0
629,-0.006756491411291178,0.0
630,0.04506331444606858,0.0
631,-0.0383473514784544,0.0
632,-0.04068448749526063,0.0
633,-0.006172054891313743,0.0
634,0.0018796159764462896,0.0
635,0.05434037881310508,0.0
636,0.04835361109400796,0.0
637,-0.021327491638421996,0.0
638,0.013754885992636579,0.0
639,-0.11660468320178774,0.0
640,0.3808176110848347,0.0
641,3.635261774956656,0.0
642,6.827748931114278,0.0
643,-0.47938793384732287,0.0
644,-1.9512291727812243,0.0
645,1.4727183012117182,0.0
646,-0.7336176529093202,0.0
647,0.1495688108063286,0.0
648,0.01227215564194116,0.0
649,0.0431844690691936,0.0
650,0.03699551337822705,0.0
651,0.04707313489002568,0.0
652,0.06430498673803137,0.0
653,0.029594029763525626,0.0
654,0.06482132303919108,0.0
655,0.08264452967355546,0.0
656,0.0269091215766902,0.0
657,-0.05259342914998062,0.0
658,-0.047594709498089846,0.0
659,0.029433701721209793,0.0
660,0.3336751242071608,0.0
661,3.6346700766568074,0.0
662,6.801392526322114,0.0
663,-0.3080334258423676,0.0
664,-1.8570239738753371,0.0
665,1.5534792332598408,0.0
666,-0.7233267682272235,0.0
667,0.14108668625577037,0.0
668,-0.09842692104430907,0.0
669,-0.11337450288656808,0.0
670,0.01724914554617946,0.0
671,-0.042512791125234484,0.0
672,-0.04142376612410499,0.0
673,0.007291662192995858,0.0
674,-0.002791960762492345,0.0
675,0.0184175748608426,0.0
676,-0.02030492178418165,0.0
677,-0.02483377922249916,0.0
678,-0.0005728935148270019,0.0
679,-0.017719248399604984,0.0
680,0.3149777938487127,0.0
681,3.614604916342191,0.0
682,6.947269730187765,0.0
683,-0.38078406961874445,0.0
684,-1.7979782236844004,0.0
685,1.6107505849775454,0.0
686,-0.6676193282381977,0.0
687,0.0774294262867046,0.0
688,-0.03324384173071203,0.0
689,-0.021512290232080955,0.0
690,-0.016921462411042337,0.0
691,-0.011700265502007277,0.0
692,-0.055705545832876416,0.0
693,-0.010629328841680146,0.0
694,0.0398710989177651,0.0
695,0.060306554580463176,0.0
696,-0.080572649579355,0.0
697,0.026551358348405774,0.0
698,-0.029591282522627188,0.0
699,-0.11880681282501077,0.0
700,0.32552894860365267,0.0
701,3.6355048978964026,0.0
702,6.846194474467036,0.0
703,-0.4759916039403722,0.0
704,-1.839915470075654,0.0
705,1.5609784697926092,0.0
706,-0.7878007801688789,0.0
707,0.1545906765243823,0.0
708,0.018534122585856003,0.0
709,-0.09350548522474027,0.0
710,-0.005388862214333306,0.0
711,-0.015942394190275804,0.0
712,-0.0047488596133563425,0.0
713,-0.0858357841201563,0.0
714,0.006705121387737933,0.0
715,-0.005584134595519322,0.0
716,-0.018553570447647483,0.0
717,0.01691750819959475,0.0
718,0.09132750627983659,0.0
719,-0.12481191810048188,0.0
720,0.2885572826543859,0.0
721,3.6208459744122505,0.0
722,6.907526559827603,0.0
723,-0.5119461996566859,0.0
724,-1.8818114187883332,0.0
725,1.4911565501619732,0.0
726,-0.7301235574772322,0.0
727,0.1650996824604407,0.0
728,0.034777756229923115,0.0
729,-0.028034994008723356,0.0
730,-0.07955003019315446,0.0
731,-0.02856378708884895,0.0
732,-0.04635229008857828,0.0
733,0.006102316181961439,0.0
734,-0.045237201696626705,0.0
735,-0.033675233381309046,0.0
736,0.0005262580000622054,0.0
737,-0.06032262757072459,0.0
738,-0.051117952990166894,0.0
739,0.021651507448092217,0.0
740,0.34141438059829743,0.0
741,3.653678423987157,0.0
742,6.814231178160864,0.0
743,-0.4110874879259087,0.0
744,-1.8676538793842083,0.0
745,1.5615926627430472,0.0
746,-0.7114141796620196,0.0
747,0.285819529329436,0.0
748,0.05585377364383315,0.0
749,0.08558526484239448,0.0
750,0.0126081062163141,0.0
751,-0.0029513791336170936,0.0
752,-0.04165838450260171,0.0
753,0.0993704761734464,0.0
754,0.11932247369300494,0.0
755,0.08005710009394423,0.0
756,0.09199513060984729,0.0
757,-0.0033550813539685725,0.0
758,-0.003980789755630834,0.0
759,0.012302988588987096,0.0
760,0.3553188633963803,0.0
761,3.6897125626311884,0.0
762,6.875411180813612,0.0
763,-0.4649365588894411,0.0
764,-1.8143376653269794,0.0
765,1.6402061842358344,0.0
766,-0.794676876320302,0.0
767,0.16454602434772403,0.0
768,0.02580172751347377,0.0
769,0.0004877852124732865,0.0
770,0.03903716479228486,0.0
771,-0.05846567765985651,0.0
772,-0.045562301005098074,0.0
773,-0.08884163348190324,0.0
774,-0.012859767818293719,0.0
775,-0.03594200210264222,0.0
776,0.03249271425145234,0.0
777,-0.03223264430838214,0.0
778,-0.013894746582003044,0.0
779,0.04641756809261445,0.0
780,0.15033315311059692,0.0
781,3.619003547248684,0.0
782,6.858143129030704,0.0
783,-0.540799265414016,0.0
784,-1.872543402943008,0.0
785,1.540261211193097,0.0
786,-0.7710419471234233,0.0
787,0.24040016077452134,0.0
788,0.018006562371363378,0.0
789,-0.08947184840161877,0.0
790,0.04023340260185097,0.0
791,0.04061537394277133,0.0
792,0.04066978853224398,0.0
793,0.009821164130331975,0.0
794,0.013464869190628679,0.0
795,-0.05531649672592866,0.0
796,0.059851582934706035,0.0
797,0.025010674683577778,0.0
798,0.04713324528034455,0.0
799,-0.04636925579603299,0.0
800,0.18673817108786211,0.0
801,3.668928452119042,0.0
802,6.890290772603554,0.0
803,-0.5138041753798808,0.0
804,-1.8151340191335013,0.0
805,1.5807460016261563,0.0
806,-0.6826284790532487,0.0
807,0.16140728228256443,0.0
808,0.05246514940060178,0.0
809,-0.09230046367209473,0.0
810,-0.005836138404669879,0.0
811,0.07177694183180114,0.0
812,-0.07283638786128609,0.0
813,0.031641424635619295,0.0
814,0.03757831580311459,0.0
815,-0.03585052352048173,0.0
816,-0.04566527467330723,0.0
817,0.01769836030060904,0.0
818,-0.004779703266737998,0.0
819,-0.015369370965594549,0.0
820,0.33693935386921625,0.0
821,3.614992289159667,0.0
822,6.806777498445353,0.0
823,-0.584066387734592,0.0
824,-1.8282246777110134,0.0
825,1.4801410958921726,0.0
826,-0.7630034679643701,0.0
827,0.07633399665123271,0.0
828,-0.005879483368962945,0.0
829,-0.006228538386012783,0.0
830,0.003945995684736137,0.0
831,0.014113186127106808,0.0
832,0.052894833410736676,0.0
833,-0.021315614552501232,0.0
834,0.013144732727218385,0.0
835,-0.029933476479293102,0.0
836,0.031158057535550863,0.0
837,-0.014712855263219445,0.0
838,0.03620584232202238,0.0
839,-0.12348315420399719,0.0
840,0.22355304107473956,0.0
841,3.716148983851343,0.0
842,6.801245362842418,0.0
843,-0.5385900953419391,0.0
844,-1.9397335171274293,0.0
845,1.450929792950827,0.0
846,-0.7440170776655023,0.0
847,0.073938665254354,0.0
848,-0.018813456427798293,0.0
849,-0.0020036925532861127,0.0
850,0.060930303753245194,0.0
851,-0.1192262108186948,0.0
852,-0.023493695330214025,0.0
853,0.07383736742886349,0.0
854,-0.022732129149349155,0.0
855,0.016289984232404277,0.0
856,-0.005306469485856733,0.0
857,0.03636613586024464,0.0
858,0.023266306730365723,0.0
859,-0.038415365889853524,0.0
860,0.26816137036430204,0.0
861,3.658656202197444,0.0
862,6.862069427154375,0.0
863,-0.5153801557195286,0.0
864,-1.8434417956869078,0.0
865,1.4976886322076972,0.0
866,-0.7867537127532743,0.0
867,0.16264851956978665,0.0
868,0.08357024888823919,0.0
869,-0.09858352146125796,0.0
870,-0.034887915874619195,0.0
871,-0.009112017141491506,0.0
872,0.006142639399368668,0.0
873,-0.024067126072516994,0.0
874,-0.07583944510321544,0.0
875,0.002431536364989613,0.0
876,0.05887461135271339,0.0
877,0.011301843142451064,0.0
878,-0.0074646991786433345,0.0
879,0.061173674268910586,0.0
880,0.2247041645119227,0.0
881,3.6931890846882514,0.0
882,6.7871657812612805,0.0
883,-0.5097215777287897,0.0
884,-1.7605835978731084,0.0
885,1.5003868167536756,0.0
886,-0.7482641988881779,0.0
887,0.20872554417841277,0.0
888,0.10827239896762103,0.0
889,-0.04677292846506151,0.0
890,0.0894827538277798,0.0
891,0.01119756851071751,0.0
892,0.0035293616631333798,0.0
893,-0.05438377436687063,0.0
894,0.02189288825557976,0.0
895,-0.0764280147379609,0.0
896,0.014877501937115114,0.0
897,-0.06601757902142885,0.0
898,-0.02197802324149605,0.0
899,-0.031308110066715904,0.0
900,0.1791549874201917,0.0
901,3.6211883259160103,0.0
902,6.751084311959603,0.0
903,-0.519841095828462,0.0
904,-1.854788004197858,0.0
905,1.4830127931300088,0.0
906,-0.7360300329281707,0.0
907,0.1341940867973028,0.0
908,0.013275263835595836,0.0
909,-0.08321999778095956,0.0
910,0.06639162789845013,0.0
911,0.048213058797667845,0.0
912,-0.0038923639671956728,0.0
913,0.025816222383243298,0.0
914,-0.005620741422169372,0.0
915,-0.030193738184620476,0.0
916,-0.016592587676533023,0.0
917,0.05648196932871665,0.0
918,-0.0946025703457483,0.0
919,-0.0426908082617306,0.0
920,0.3046259961209638,0.0
921,3.602506449390647,0.0
922,6.813777184394282,0.0
923,-0.5309386855189918,0.0
924,-1.9397212624313798,0.0
925,1.515287692591172,0.0
926,-0.8224786241770431,0.0
927,0.13122701338523554,0.0
928,0.023503551334085167,0.0
929,-0.12737943593026538,0.0
930,0.019228822120452745,0.0
931,-0.08122557965059422,0.0
932,-0.045513606631460146,0.0
933,-0.09978455305190582,0.0
934,-0.08560184324533171,0.0
935,-0.06903336450294059,0.0
936,0.020515472782486423,0.0
937,-0.026930808440116662,0.0
938,-0.06502137435150962,0.0
939,-0.03075315898546096,0.0
940,0.31914936181570597,0.0
941,3.6860125235037016,0.0
942,6.792225888375899,0.0
943,-0.4787619479592383,0.0
944,-1.818311293206648,0.0
945,1.5351601276599331,0.0
946,-0.7021673722050176,0.0
947,0.17254835899325388,0.0
948,-0.013449689915481865,0.0
949,-0.053908072945020896,0.0
950,0.11220010513959042,0.0
951,-0.056759997751443546,0.0
952,0.0095833679689611,0.0
953,-0.003889990029036567,0.0
954,0.027119613247882188,0.0
955,0.07705883729660763,0.0
956,-0.010655804111111231,0.0
957,0.038886820792322516,0.0
958,0.044744543913016056,0.0
959,-0.03363832890237036,0.0
960,0.26549509911651037,0.0
961,3.5489410010010536,0.0
962,6.819168951901227,0.0
963,-0.6097543536612524,0.0
964,-1.7706659279911592,0.0
965,1.5314037893554893,0.0
966,-0.7161982169010976,0.0
967,0.10934280554057144,0.0
968,0.04952000872637241,0.0
969,-0.07913306684039836,0.0
970,0.005696539098327867,0.0
971,-0.0115290036576082,0.0
972,0.01771438203971326,0.0
973,0.04265405238780104,0.0
974,-0.059771182605265344,0.0
975,0.00016986267535838576,0.0
976,0.10122058210989177,0.0
977,0.04265533302592446,0.0
978,0.004703423168411602,0.0
979,0.08194636332162926,0.0
980,0.4217888529443039,0.0
981,3.7276057436772105,0.0
982,6.873675214491889,0.0
983,-0.539982598912004,0.0
984,-1.7046137324197466,0.0
985,1.4898140580626449,0.0
986,-0.7250155096384447,0.0
987,0.3356905616499217,0.0
988,0.046289872754855424,0.0
989,-0.03732739478164155,0.0
990,0.07164571961054014,0.0
991,0.08940351080366842,0.0
992,0.03392245297577822,0.0
993,0.08769401561301501,0.0
994,-0.027634726986691487,0.0
995,-0.020606283468444668,0.0
996,-0.009333442355980581,0.0
997,-0.02079350265201376,0.0
998,0.03292708985543123,0.0
999,0.04864692572450677,0.0
1000,0.3911032610998732,0.0
1001,3.6023613727899932,0.0
1002,6.804674096657515,0.0
1003,-0.5784758431760222,0.0
1004,-1.7554326366833595,0.0
1005,1.5642891094703986,0.0
1006,-0.7369773555042098,0.0
1007,0.1744463072313283,0.0
1008,0.1864485623941322,0.0
1009,-0.02988220143490968,0.0
1010,0.1468721028057952,0.0
1011,0.10303789689079193,0.0
1012,-0.014166929801575516,0.0
1013,0.05215901370664934,0.0
1014,0.006244730776824834,0.0
1015,0.03405781924220616,0.0
1016,-0.005761874135619242,0.0
1017,0.036486037246741515,0.0
1018,0.049078045228929904,0.0
1019,0.0072861931557919035,0.0
1020,0.28707422383570574,0.0
1021,3.7278126470318127,0.0
1022,6.802039929574914,0.0
1023,-0.4601920680419069,0.0
1024,-1.7856233789298472,0.0
1025,1.5811890203396541,0.0
1026,-0.6841063020761967,0.0
1027,0.20012815851539742,0.0
1028,0.1563455010263044,0.0
1029,-0.05126995645605503,0.0
1030,0.04393469721929248,0.0
1031,0.1123768573402244,0.0
1032,-0.009843989985412489,0.0
1033,-0.03966547435583803,0.0
1034,-0.019417289744015274,0.0
1035,0.040747731660794415,0.0
1036,-0.03589897733645485,0.0
1037,-0.00700675874337877,0.0
1038,-0.032658427056812156,0.0
1039,0.0402925010937782,0.0
1040,0.37118356563163285,0.0
1041,3.593430197220953,0.0
1042,6.828435123803417,0.0
1043,-0.5949892932430625,0.0
1044,-1.7186452663919187,0.0
1045,1.509097136300809,0.0
1046,-0.675197884658572,0.0
1047,0.14008399794636114,0.0
1048,-0.09663156143529429,0.0
1049,0.0405026458090432,0.0
1050,-0.056859930026944706,0.0
1051,-0.04307527910219398,0.0
1052,0.016866059376411693,0.0
1053,0.0232394232788434,0.0
1054,0.08215597067299486,0.0
1055,0.09752204240390752,0.0
1056,-0.00870323237781677,0.0
1057,0.002217492901692519,0.0
1058,0.004856325190971105,0.0
1059,0.06963930775463342,0.0
1060,0.3767783460293236,0.0
1061,3.7850870918075112,0.0
1062,6.851816600124384,0.0
1063,-0.5387792969795124,0.0
1064,-1.7827642672057495,0.0
1065,1.5279026148685655,0.0
1066,-0.7020189623225173,0.0
1067,0.20738391774646386,0.0
1068,0.1023825250698173,0.0
1069,-0.07500845056527645,0.0
1070,0.02867291043993177,0.0
1071,-0.04594519216415601,0.0
1072,0.04746853379630759,0.0
1073,0.023908058387100854,0.0
1074,-0.006582910290463748,0.0
1075,0.0877532761488786,0.0
1076,0.17393560739387176,0.0
1077,0.07746388485598599,0.0
1078,-0.033621866070733836,0.0
1079,0.04159686245047429,0.0
1080,0.27511738607027447,0.0
1081,3.6180006199459926,0.0
1082,6.778796550052327,0.0
1083,-0.528850999879274,0.0
1084,-1.8198144206090943,0.0
1085,1.5193305587722392,0.0
1086,-0.6790764145990146,0.0
1087,0.17957858959331735,0.0
1088,0.024757397961856206,0.0
1089,0.009773085084500512,0.0
1090,0.0527743688881329,0.0
1091,-0.0026389900322095275,0.0
1092,0.033923937559647524,0.0
1093,0.04492156029371766,0.0
1094,0.09204127203458554,0.0
1095,0.04292721176761595,0.0
1096,0.09985092155184078,0.0
1097,0.16825104301081908,0.0
1098,0.06555004763598882,0.0
1099,-0.012157221931103503,0.0
1100,0.3205249370807953,0.0
1101,3.6054711179245644,0.0
1102,6.643800510380535,0.0
1103,-0.48471001436968625,0.0
1104,-1.7682453808664795,0.0
1105,1.5677693478856827,0.0
1106,-0.6855225229450658,0.0
1107,0.18810466017440805,0.0
1108,0.11044702932548693,0.0
1109,0.04636707124335566,0.0
1110,0.057936348324338166,0.0
1111,0.0767247372857704,0.0
1112,0.05193528552004327,0.0
1113,0.15476227308004759,0.0
1114,-0.02110592735178511,0.0
1115,0.0545315320673111,0.0
1116,0.01901694315300105,0.0
1117,-0.06752228402308169,0.0
1118,-0.032277460764128116,0.0
1119,0.05774923615772921,0.0
1120,0.34306920554212267,0.0
1121,3.7522197028663946,0.0
1122,6.860092671442835,0.0
1123,-0.5320852529041782,0.0
1124,-1.8502394976486036,0.0
1125,1.5784218353990893,0.0
1126,-0.714702868340243,0.0
1127,0.08807082854678704,0.0
1128,0.09001091813975914,0.0
1129,-0.0077587298347320584,0.0
1130,0.01704046564331893,0.0
1131,-0.03767673367035137,0.0
1132,0.06484172056239898,0.0
1133,-0.028113404862848856,0.0
1134,0.13770716589293558,0.0
1135,0.025254509678081717,0.0
1136,0.1545982069454627,0.0
1137,0.038405569392488084,0.0
1138,0.04973592309086097,0.0
1139,0.0709644831892479,0.0
1140,0.4002665168791797,0.0
1141,3.7219907494346947,0.0
1142,6.775346634430712,0.0
1143,-0.5615397072620054,0.0
1144,-1.821587733360121,0.0
1145,1.5531210443259753,0.0
1146,-0.7254080312031798,0.0
1147,0.15972144489556603,0.0
1148,0.08245467105803886,0.0
1149,-0.09718932216460408,0.0
1150,0.09012472204242836,0.0
1151,0.10165099794731217,0.0
1152,-0.044118156536505575,0.0
1153,0.060281337744793016,0.0
1154,-0.06150903112303763,0.0
1155,0.09881690360386373,0.0
1156,0.059870341440316555,0.0
1157,0.05976736195184294,0.0
1158,0.10622224225040966,0.0
1159,0.045685331179339886,0.0
1160,0.37418847522346765,0.0
1161,3.7443078520046127,0.0
1162,6.816757096034895,0.0
1163,-0.5481530553334457,0.0
1164,-1.754654181868099,0.0
1165,1.5969912521580498,0.0
1166,-0.6311067289406965,0.0
1167,0.3234657683921876,0.0
1168,0.030360273965472126,0.0
1169,0.151448652769067,0.0
1170,0.1227342600787945,0.0
1171,0.13952031639780632,0.0
1172,0.15592408103962996,0.0
1173,0.03957685100835363,0.0
1174,0.02903979631342419,0.0
1175,0.12845388093471177,0.0
1176,0.0817631197547059,0.0
1177,0.05396397903000806,0.0
1178,0.16497164265821943,0.0
1179,0.05065946330515403,0.0
1180,0.3575248982873115,0.0
1181,3.8669726258817083,0.0
1182,6.856026773476487,0.0
1183,-0.5103718819143823,0.0
1184,-1.7060825803896673,0.0
1185,1.5371391389225346,0.0
1186,-0.6752301587086164,0.0
1187,0.23768646774181085,0.0
1188,0.027559872073119877,0.0
1189,-0.06347107821855123,0.0
1190,0.1295414655051767,0.0
1191,0.08219004515904908,0.0
1192,0.0712625742730654,0.0
1193,0.09494698300656974,0.0
1194,0.05878338677580541,0.0
1195,0.12602727004453368,0.0
1196,0.02839495836031393,0.0
1197,0.06860085525793232,0.0
1198,0.05217672221372903,0.0
1199,0.021135573937921197,0.0
1200,0.4132200934091158,0.0
1201,3.798767025359934,0.0
1202,6.867246804631358,0.0
1203,-0.5222476322802785,0.0
1204,-1.67360956283083,0.0
1205,1.5245482371747647,0.0
1206,-0.6833169996762588,0.0
1207,0.35066707836330246,0.0
1208,0.13318796382328002,0.0
1209,0.0730383829256567,0.0
1210,0.1846718359049501,0.0
1211,0.19764274864303907,0.0
1212,0.1709386622522769,0.0
1213,0.24958922249276952,0.0
1214,0.13250888893782653,0.0
1215,0.1434730296423948,0.0
1216,0.15205200859962603,0.0
1217,0.10111352886351038,0.0
1218,0.09625532345695002,0.0
1219,0.19165302633109346,0.0
1220,0.26406243342139396,0.0
1221,3.8623066484894055,0.0
1222,6.91601256949745,0.0
1223,-0.5689513907656438,0.0
1224,-1.711903850587849,0.0
1225,1.4910041414118398,0.0
1226,-0.6941656020639967,0.0
1227,0.12096120827487884,0.0
1228,0.0591338805086352,0.0
1229,-0.04668387766612854,0.0
1230,0.030212674833087448,0.0
1231,-0.005739822498601863,0.0
1232,0.03883534502386844,0.0
1233,0.028381979190924847,0.0
1234,0.01585685331771013,0.0
1235,0.022921455000664077,0.0
1236,0.07764118141890358,0.0
1237,0.12232041513128998,0.0
1238,0.05451382006673443,0.0
1239,0.061065758316342617,0.0
1240,0.40126488422104917,0.0
1241,3.7492907961831934,0.0
1242,6.823445155008462,0.0
1243,-0.518011046587891,0.0
1244,-1.6709448661847013,0.0
1245,1.610722256706872,0.0
1246,-0.6509744879552403,0.0
1247,0.14905602898120468,0.0
1248,0.12873244256039434,0.0
1249,0.026867312906108463,0.0
1250,0.08410887153873517,0.0
1251,0.1084530300402586,0.0
1252,0.1049807431419213,0.0
1253,0.052944123187873775,0.0
1254,0.0065481554537923856,0.0
1255,0.06185237529850044,0.0
1256,0.1404029959096746,0.0
1257,0.02212958259590018,0.0
1258,0.0913505264390013,0.0
1259,0.012244887317534363,0.0
1260,0.4060360590582856,0.0
1261,3.8167261128845182,0.0
1262,6.86229781714908,0.0
1263,-0.5496486268648785,0.0
1264,-1.770592751708865,0.0
1265,1.4982194727812084,0.0
1266,-0.7036122927622434,0.0
1267,0.2457741178953337,0.0
1268,0.04608143205023604,0.0
1269,0.048260507488031214,0.0
1270,0.048601584163103076,0.0
1271,-0.06751442696171162,0.0
1272,0.10952964999842732,0.0
1273,-0.053023827611097765,0.0
1274,0.030922224955945824,0.0
1275,-0.058795383201061424,0.0
1276,0.04978748720569779,0.0
1277,0.03443092798957842,0.0
1278,-0.042959272572312635,0.0
1279,-0.10835911579135421,0.0
1280,0.3588123728241806,0.0
1281,3.7245109276829576,0.0
1282,6.800188551456944,0.0
1283,-0.5661865508793821,0.0
1284,-1.7538900347669317,0.0
1285,1.502913447983134,0.0
1286,-0.7081425358570436,0.0
1287,0.08348908742924596,0.0
1288,0.005469624153515009,0.0
1289,0.004056862100511802,0.0
1290,-0.040023452186783326,0.0
1291,0.006540361473833559,0.0
1292,-0.011249055300222726,0.0
1293,0.07907670450729515,0.0
1294,-0.06651197180184454,0.0
1295,-0.09438402656047092,0.0
1296,0.09379419455970434,0.0
1297,-0.010155566020063775,0.0
1298,-0.011442394283346816,0.0
1299,-0.04379336567737971,0.0
1300,0.39942425085984057,0.0
1301,3.7879613546742537,0.0
1302,6.700679261185934,0.0
1303,-0.6160547067162321,0.0
1304,-1.8161022502935862,0.0
1305,1.45978364793898,0.0
1306,-0.790867924932688,0.0
1307,0.15355719743455265,0.0
1308,-0.03362525193369548,0.0
1309,-0.013776495254383337,0.0
1310,0.072549265099532,0.0
1311,-0.016588367935428866,0.0
1312,0.04355974822801775,0.0
1313,-0.050570310577538406,0.0
1314,-0.07968765715358293,0.0
1315,0.08771655755128412,0.0
1316,-0.0009929835092649907,0.0
1317,0.014963977766928342,0.0
1318,0.06628271516969747,0.0
1319,0.0004422554577319035,0.0
1320,0.29623973957273564,0.0
1321,3.732275232450876,0.0
1322,6.686226523066832,0.0
1323,-0.5698622682603619,0.0
1324,-1.641696615376016,0.0
1325,1.5122390971239128,0.0
1326,-0.7087483373442627,0.0
1327,0.08196356628681234,0.0
1328,-0.1707683452449469,0.0
1329,0.03650212547821045,0.0
1330,-0.039762108761892255,0.0
1331,-0.005138188243421323,0.0
1332,-0.05300945201122307,0.0
1333,0.09655457140338194,0.0
1334,-0.11193807856841731,0.0
1335,-0.05099842273754458,0.0
1336,0.029044461329824654,0.0
1337,0.03159386580366117,0.0
1338,-0.1000651354657419,0.0
1339,0.02542613533823492,0.0
1340,0.2731579676497767,0.0
1341,3.6200625253675422,0.0
1342,6.763570275674879,0.0
1343,-0.6401572619374857,0.0
1344,-1.7648374892055214,0.0
1345,1.5098874556020108,0.0
1346,-0.7753147065989396,0.0
1347,0.1588414304993332,0.0
1348,-0.052384094352186876,0.0
1349,-0.22751893830543796,0.0
1350,-0.0092268429725986,0.0
1351,-0.007328457073262607,0.0
1352,0.0254379635740571,0.0
1353,0.026463433507081413,0.0
1354,0.054263602627249316,0.0
1355,0.03480319599635468,0.0
1356,-0.07678343945109616,0.0
1357,-0.07250598791312059,0.0
1358,0.04133496709024111,0.0
1359,0.010527136010187451,0.0
1360,0.2514090906512804,0.0
1361,3.781745263230907,0.0
1362,6.745573802025646,0.0
1363,-0.5134534903196386,0.0
1364,-1.7269624130944337,0.0
1365,1.4899386418636726,0.0
1366,-0.7196789554940406,0.0
1367,0.12848781505843898,0.0
1368,0.06437372510405096,0.0
1369,-0.00471592576814461,0.0
1370,0.011633224574328988,0.0
1371,0.0347753522752489,0.0
1372,0.03030371168849716,0.0
1373,0.013492704499394471,0.0
1374,0.016670146747526857,0.0
1375,0.00849288793344638,0.0
1376,0.04044856559033422,0.0
1377,0.0849913179167877,0.0
1378,0.03340223534730215,0.0
1379,0.02454854639386853,0.0
1380,0.2946597831675593,0.0
1381,3.7279897411215,0.0
1382,6.8320947422496765,0.0
1383,-0.6977885404543316,0.0
1384,-1.7407966599202263,0.0
1385,1.516495217017333,0.0
1386,-0.7310838028454263,0.0
1387,0.1982156795171608,0.0
1388,0.046524842845649304,0.0
1389,0.0020537953407946397,0.0
1390,0.02837741595317602,0.0
1391,0.028609267997628404,0.0
1392,-0.07979435578431981,0.0
1393,-0.09056796161019497,0.0
1394,0.0047563104030651625,0.0
1395,0.06455364664594021,0.0
1396,0.0640912468573546,0.0
1397,-0.0089861202074983,0.0
1398,0.04420698273477011,0.0
1399,-0.047899787270301,0.0
1400,0.3233020798701251,0.0
1401,3.6658737561951873,0.0
1402,6.759826723603771,0.0
1403,-0.5162045511652602,0.0
1404,-1.7267245414698325,0.0
1405,1.504195687793942,0.0
1406,-0.7543930094855865,0.0
1407,0.19560873695415518,0.0
1408,0.034659449160419686,0.0
1409,-0.02193011564063655,0.0
1410,-0.0021097526473474928,0.0
1411,0.01634877163358001,0.0
1412,0.03158145093576932,0.0
1413,-0.04904093669973775,0.0
1414,-0.048394914670489286,0.0
1415,-0.04194377659171625,0.0
1416,0.06446232021637113,0.0
1417,0.020277334790895267,0.0
1418,0.039143254993233394,0.0
1419,0.07806114650820403,0.0
1420,0.3227618499306822,0.0
1421,3.796800776461657,0.0
1422,6.824979154001063,0.0
1423,-0.6354278328976963,0.0
1424,-1.707222730827436,0.0
1425,1.5062518107063019,0.0
1426,-0.8203038436257597,0.0
1427,0.18868284413055908,0.0
1428,0.057277355802359445,0.0
1429,0.0017203915115034212,0.0
1430,-0.038174695736812224,0.0
1431,-0.0324796989905537,0.0
1432,0.0432890929796006,0.0
1433,-0.010058385034694648,0.0
1434,-0.05075373277305733,0.0
1435,-0.06880144429561781,0.0
1436,0.050576451890179175,0.0
1437,-0.09857331559177605,0.0
1438,-0.01227850605558374,0.0
1439,-0.07670217819976072,0.0
1440,0.2997733205109939,0.0
1441,3.752256737703798,0.0
1442,6.759527076108065,0.0
1443,-0.6681910573620464,0.0
1444,-1.676343391784794,0.0
1445,1.4280206306796692,0.0
1446,-0.8253604713198713,0.0
1447,0.22966148417143106,0.0
1448,0.01873701795402429,0.0
1449,0.02828714922351413,0.0
1450,-0.024095919451958932,0.0
1451,0.043551649148780104,0.0
1452,-0.003340689706382725,0.0
1453,-0.01614583078623041,0.0
1454,0.013176981455552975,0.0
1455,-0.1400692046594943,0.0
1456,-0.03356149655268372,0.0
1457,-0.030275300751939616,0.0
1458,0.01491765896673869,0.0
1459,-0.0291444941640032,0.0
1460,0.3949708353451932,0.0
1461,3.8956802727206834,0.0
1462,6.883747794530242,0.0
1463,-0.6021116510107762,0.0
1464,-1.6321592668797655,0.0
1465,1.4377260635457727,0.0
1466,-0.8087326487861188,0.0
1467,0.13352902007489964,0.0
1468,0.0005649719569747452,0.0
1469,-0.13938007579642994,0.0
1470,-0.03846166256848222,0.0
1471,-0.12549861402189263,0.0
1472,-0.00885513409831435,0.0
1473,-0.08953591550813583,0.0
1474,-0.04652557587508013,0.0
1475,-0.005068040692065045,0.0
1476,-0.03673668097671247,0.0
1477,-0.02915626030258442,0.0
1478,0.01711845583613309,0.0
1479,0.03870901503737547,0.0
1480,0.3130557812711016,0.0
1481,3.7037179639361475,0.0
1482,6.743287230922382,0.0
1483,-0.6225739764419921,0.0
1484,-1.6859245103602636,0.0
1485,1.4777157933127658,0.0
1486,-0.7220094172851043,0.0
1487,0.19066465186079096,0.0
1488,0.07225856817082646,0.0
1489,-0.06869862915158391,0.0
1490,0.11962801061010339,0.0
1491,-0.05248790444695011,0.0
1492,0.09691040770712772,0.0
1493,0.0593879315684298,0.0
1494,-0.0583833938569158,0.0
1495,-0.011053668488878558,0.0
1496,0.0434532233930614,0.0
1497,-0.0077941563075156674,0.0
1498,0.037213627787844,0.0
1499,-0.14089073263867724,0.0
1500,0.4123959855143074,0.0
1501,3.7577802741774353,0.0
1502,6.709524259083386,0.0
1503,-0.702012562506138,0.0
1504,-1.7474778430744065,0.0
1505,1.5302818482122487,0.0
1506,-0.7496795468779548,0.0
1507,0.1054295003481006,0.0
1508,0.05986020889835199,0.0
1509,-0.03710050514494407,0.0
1510,-0.031171075105936075,0.0
1511,-0.07012179352252007,0.0
1512,-0.025379451732680365,0.0
1513,0.033094469870765655,0.0
1514,-0.05117567846376028,0.0
1515,-0.14445138504327718,0.0
1516,-0.027822676004205637,0.0
1517,-0.0639784549828396,0.0
1518,-0.029990911894679402,0.0
1519,-0.0033301569540064024,0.0
1520,0.3514634332034235,0.0
1521,3.776674945744188,0.0
1522,6.759931060096839,0.0
1523,-0.598316507541287,0.0
1524,-1.8084777244603993,0.0
1525,1.6032341934122054,0.0
1526,-0.6709080394667144,0.0
1527,0.17784427929173138,0.0
1528,0.007860726744512143,0.0
1529,-0.038397143785312005,0.0
1530,0.01874097695592255,0.0
1531,0.062335797953051525,0.0
1532,-0.012841835424747988,0.0
1533,0.05558018345208542,0.0
1534,0.008437987365822049,0.0
1535,-0.04462122594947543,0.0
1536,-0.056734435473423,0.0
1537,-0.07749041708429849,0.0
1538,0.028005784560342212,0.0
1539,0.09053333098723756,0.0
1540,0.2816815472112889,0.0
1541,3.759942095826176,0.0
1542,6.762563533593824,0.0
1543,-0.7370476820731642,0.0
1544,-1.6871564473406802,0.0
1545,1.578161302268822,0.0
1546,-0.7273550684175512,0.0
1547,0.11587210242083243,0.0
1548,0.01976363085164523,0.0
1549,-0.10171148122131858,0.0
1550,0.05430347953951868,0.0
1551,-0.05037250944854553,0.0
1552,-0.10344540773757321,0.0
1553,-0.01652555600353778,0.0
1554,-0.09312439778194354,0.0
1555,-0.05297099741553216,0.0
1556,-0.11453611437815533,0.0
1557,-0.1086893591921477,0.0
1558,-0.050146122648483414,0.0
1559,-0.06542348663966659,0.0
1560,0.31245007912175826,0.0
1561,3.73750875988232,0.0
1562,6.796204624129812,0.0
1563,-0.6909004404269528,0.0
1564,-1.716254409127225,0.0
1565,1.5187757073310235,0.0
1566,-0.791860967854529,0.0
1567,0.14726277868436802,0.0
1568,-0.01738755714896289,0.0
1569,-0.11494932239607902,0.0
1570,0.014538424354890576,0.0
1571,-0.008959218610395885,0.0
1572,0.0240178368646241,0.0
1573,0.04330327357761004,0.0
1574,0.017282505112081667,0.0
1575,-0.036971113997060455,0.0
1576,0.02283767972718066,0.0
1577,-0.028821138535547717,0.0
1578,-0.04106907287150923,0.0
1579,-0.10968408167475721,0.0
1580,0.35667565214113806,0.0
1581,3.768062230404283,0.0
1582,6.804748575871095,0.0
1583,-0.7134032910232648,0.0
1584,-1.7238406142501705,0.0
1585,1.5186761523942405,0.0
1586,-0.5958663048675189,0.0
1587,0.229043207091304,0.0
1588,-0.03905077275102796,0.0
1589,-0.003987462629161047,0.0
1590,0.045868170521568996,0.0
1591,0.011944632976562343,0.0
1592,0.03308970392203923,0.0
1593,0.022264704938414686,0.0
1594,0.0523173207414884,0.0
1595,-0.037684138249088506,0.0
1596,-0.025806715831129194,0.0
1597,-0.0014176339892096861,0.0
1598,-0.053294150155383295,0.0
1599,-0.06910572755504839,0.0
1600,0.35817221862750137,0.0
1601,3.7864536206603163,0.0
1602,6.799753331752344,0.0
1603,-0.7431818333559242,0.0
1604,-1.7490964960127258,0.0
1605,1.5043144761631102,0.0
1606,-0.7254995987391984,0.0
1607,0.10404113348877944,0.0
1608,-0.006209657914829571,0.0
1609,-0.016705881115480468,0.0
1610,-0.07394658533786555,0.0
1611,-0.04393904731307979,0.0
1612,-0.0694590880488788,0.0
1613,0.061525150490895866,0.0
1614,-0.013006172555559655,0.0
1615,-0.04230760763676851,0.0
1616,-0.00418488054171329,0.0
1617,0.03626511226312312,0.0
1618,-0.006993715379017482,0.0
1619,0.07567139727288677,0.0
1620,0.26721372257994663,0.0
1621,3.741146852637956,0.0
1622,6.897551830367524,0.0
1623,-0.660175655207616,0.0
1624,-1.626243619410232,0.0
1625,1.507545585045445,0.0
1626,-0.7610097519337777,0.0
1627,0.15952430624869995,0.0
1628,0.02936925093239344,0.0
1629,-0.028391005136972028,0.0
1630,-0.0011535763209372142,0.0
1631,0.05383340641783276,0.0
1632,-0.006599636953197886,0.0
1633,-0.0880653800831656,0.0
1634,-0.0635518770692346,0.0
1635,0.032176646436518186,0.0
1636,0.07443768392046514,0.0
1637,-0.058350711983212955,0.0
1638,-0.058398357331992744,0.0
1639,-0.024850336963130357,0.0
1640,0.29200279118171274,0.0
1641,3.820383992911622,0.0
1642,6.838409934582225,0.0
1643,-0.6842480950867634,0.0
1644,-1.7864203667421008,0.0
1645,1.422244053489814,0.0
1646,-0.716042018479066,0.0
1647,0.24849017523642247,0.0
1648,-0.02693622431203927,0.0
1649,-0.044424687128279496,0.0
1650,0.1176613690390238,0.0
1651,-0.0586845139428679,0.0
1652,-0.005367761630485426,0.0
1653,0.10475952007024142,0.0
1654,0.02359897854138831,0.0
1655,0.09753506656967406,0.0
1656,0.05606803797423775,0.0
1657,-0.06031183581201684,0.0
1658,-0.059380853160367404,0.0
1659,-0.052434671976805125,0.0
1660,0.3857944726330554,0.0
1661,3.7697865190148208,0.0
1662,6.751493643857422,0.0
1663,-0.6794791347109956,0.0
1664,-1.6724479346028027,0.0
1665,1.5241360363387895,0.0
1666,-0.8311669123539122,0.0
1667,0.12448019362942,0.0
1668,-0.011564585380115063,0.0
1669,-0.07050065458786237,0.0
1670,0.012057902741200095,0.0
1671,0.014795632487486249,0.0
1672,0.05246489344796868,0.0
1673,0.025137330698504115,0.0
1674,0.04293037150418216,0.0
1675,-0.0003477155907530595,0.0
1676,0.04037491636859934,0.0
1677,0.0016558662083609905,0.0
1678,-0.028799015947969103,0.0
1679,0.09192446901800871,0.0
1680,0.3990255039187527,0.0
1681,3.7753637907225985,0.0
1682,6.820118893184261,0.0
1683,-0.6761505685762459,0.0
1684,-1.6728112106053452,0.0
1685,1.4409918606990055,0.0
1686,-0.7813973202453118,0.0
1687,0.1718000454226069,0.0
1688,-0.046589663401476425,0.0
1689,-0.07644586491627446,0.0
1690,-0.04181115365708771,0.0
1691,-0.056309280271784716,0.0
1692,-0.0003867501565030622,0.0
1693,-0.07859088231613244,0.0
1694,-0.04971135739467186,0.0
1695,-0.0574947464049643,0.0
1696,-0.0014792423308175873,0.0
1697,-0.07452811675911433,0.0
1698,-0.04655912567956584,0.0
1699,0.038935472530847046,0.0
1700,0.4175775116596827,0.0
1701,3.799761222866648,0.0
1702,6.8023055968572885,0.0
1703,-0.7234746321516613,0.0
1704,-1.6286931600160115,0.0
1705,1.4820500424988654,0.0
1706,-0.7530258585604898,0.0
1707,0.1661990417386148,0.0
1708,-0.06441808695565986,0.0
1709,0.0075821417206854425,0.0
1710,-0.0008545089785457613,0.0
1711,-0.05518259657893115,0.0
1712,0.00606019739166192,0.0
1713,0.010308711410386855,0.0
1714,0.026611095251737757,0.0
1715,-0.097051036252968,0.0
1716,-0.07030837205022474,0.0
1717,0.03562493326235853,0.0
1718,0.028051992597018682,0.0
1719,-0.04168189394798527,0.0
1720,0.24652918242296706,0.0
1721,3.7388881340741156,0.0
1722,6.739778925903186,0.0
1723,-0.8120762336112677,0.0
1724,-1.6865702120395558,0.0
1725,1.50432997123228,0.0
1726,-0.7315315440650975,0.0
1727,0.20529056067393306,0.0
1728,-0.002791771287162156,0.0
1729,-0.010336944761544307,0.0
1730,-0.05908076679030093,0.0
1731,-0.10037819707655316,0.0
1732,0.06679284932914122,0.0
1733,0.032121956095204865,0.0
1734,-0.011134128938763515,0.0
1735,-0.02099133065308889,0.0
1736,-0.007198199974111741,0.0
1737,-0.043367339600474314,0.0
1738,0.002315344649210747,0.0
1739,-0.015346527830135492,0.0
1740,0.31428172799851245,0.0
1741,3.8085454292573457,0.0
1742,6.723686466871288,0.0
1743,-0.7571872790722793,0.0
1744,-1.6568655561353216,0.0
1745,1.4737994202620919,0.0
1746,-0.7222768346206915,0.0
1747,0.28423209022486856,0.0
1748,-0.01211185409003759,0.0
1749,0.02344390542713243,0.0
1750,0.044689328682935826,0.0
1751,-0.016821404024090623,0.0
1752,-0.019401428619015754,0.0
1753,0.11757745471740245,0.0
1754,-0.009796622346622888,0.0
1755,0.020786828215431256,0.0
1756,0.02990915431219947,0.0
1757,0.00728577544319922,0.0
1758,-0.04078804760716066,0.0
1759,0.07963295979707445,0.0
1760,0.39001657990910615,0.0
1761,3.9111100116790563,0.0
1762,6.794796088490844,0.0
1763,-0.8119005557320231,0.0
1764,-1.67977096565829,0.0
1765,1.5574472235944241,0.0
1766,-0.8145203825532352,0.0
1767,0.13138515873069193,0.0
1768,0.04564539222810991,0.0
1769,-0.0678102092826588,0.0
1770,0.0009655168860986246,0.0
1771,-0.016277698943157743,0.0
1772,-0.03235361469712552,0.0
1773,-0.03688474719497283,0.0
1774,0.08006181707637729,0.0
1775,-0.035414503703540975,0.0
1776,-0.0013608602426934836,0.0
1777,0.02329106945850975,0.0
1778,0.009006341329364636,0.0
1779,-0.0295847141263533,0.0
1780,0.38270955756254027,0.0
1781,3.917087671466663,0.0
1782,6.683162494970302,0.0
1783,-0.7355716375802478,0.0
1784,-1.6119959549348715,0.0
1785,1.5328528389149234,0.0
1786,-0.679893066014062,0.0
1787,0.23729175641258576,0.0
1788,0.09086418172179944,0.0
1789,-0.1157417319241489,0.0
1790,0.061149276684258944,0.0
1791,-0.04003139304985675,0.0
1792,-0.0759120737517208,0.0
1793,-0.010957526014144972,0.0
1794,0.05221196564417552,0.0
1795,-0.04494022419005614,0.0
1796,0.07183991005028036,0.0
1797,-0.014391224263047741,0.0
1798,0.062072164391079016,0.0
1799,-0.03877458281592423,0.0
1800,0.3671299416022164,0.0
1801,3.8077519556589263,0.0
1802,6.773772924772452,0.0
1803,-0.6977187475698279,0.0
1804,-1.7246857729668132,0.0
1805,1.5322465733696153,0.0
1806,-0.6968225112310252,0.0
1807,0.19721087039828997,0.0
1808,-0.022897376176773544,0.0
1809,-0.06538690825835815,0.0
1810,0.141645062771531,0.0
1811,-0.003753495460800428,0.0
1812,-0.027652660195740333,0.0
1813,-0.06483866886170198,0.0
1814,-0.012010818388743724,0.0
1815,0.007905732858025528,0.0
1816,-0.0068862862679418095,0.0
1817,0.12281540938753044,0.0
1818,-0.1331958432743904,0.0
1819,-0.09508228587598816,0.0
1820,0.3064460355088612,0.0
1821,3.805555206890134,0.0
1822,6.748760009501647,0.0
1823,-0.6473955766174138,0.0
1824,-1.60863559629135,0.0
1825,1.4764529714597328,0.0
1826,-0.6994758240919176,0.0
1827,0.33652504260778976,0.0
1828,0.0567606185439444,0.0
1829,0.06394794942600132,0.0
1830,0.21628156979621876,0.0
1831,0.07653667294771159,0.0
1832,0.056235242528041365,0.0
1833,0.018908174826849214,0.0
1834,-0.016890763245115188,0.0
1835,0.042216213979920744,0.0
1836,0.0344016767935512,0.0
1837,-0.06645091406930409,0.0
1838,0.004975483643899807,0.0
1839,-0.00648532062272934,0.0
1840,0.3843558167153546,0.0
1841,3.883181189855582,0.0
1842,6.701288301409414,0.0
1843,-0.7304324577561581,0.0
1844,-1.7021316509362765,0.0
1845,1.4127619297780265,0.0
1846,-0.8087561899099255,0.0
1847,0.09240750053101905,0.0
1848,-0.0034376196316489027,0.0
1849,-0.04691972263912852,0.0
1850,-0.008295837138388856,0.0
1851,-0.046860984051670065,0.0
1852,-0.003759043869594086,0.0
1853,-0.03166116817874126,0.0
1854,-0.0037970792310098884,0.0
1855,0.011537780694032565,0.0
1856,0.04963849916743146,0.0
1857,-0.022416768210980972,0.0
1858,0.04879248595794035,0.0
1859,0.04770501129842851,0.0
1860,0.3564850169649371,0.0
1861,3.9308558232848263,0.0
1862,6.7571766757912695,0.0
1863,-0.6751631570080837,0.0
1864,-1.6476096148212653,0.0
1865,1.537867195954035,0.0
1866,-0.7175728408119196,0.0
1867,0.2319794533073013,0.0
1868,-0.0005830287205387807,0.0
1869,0.08726332425856909,0.0
1870,0.04620488009782864,0.0
1871,0.06543390038954887,0.0
1872,0.03805023186524088,0.0
1873,-0.009666120534555192,0.0
1874,0.0038746286485413367,0.0
1875,0.13389524281434664,0.0
1876,0.08956206560963999,0.0
1877,0.009687577829029043,0.0
1878,0.1840743423948732,0.0
1879,0.08055687750526623,0.0
1880,0.31239639697316585,0.0
1881,3.8207284957144543,0.0
1882,6.814033128307407,0.0
1883,-0.7307084996822266,0.0
1884,-1.5945854560607755,0.0
1885,1.5691142018607758,0.0
1886,-0.7129575084086438,0.0
1887,0.20394513344891357,0.0
1888,-0.04878079338970231,0.0
1889,0.05680493339666068,0.0
1890,0.05666441700953546,0.0
1891,0.00017261712239185698,0.0
1892,0.08951792087082697,0.0
1893,0.046177135880663855,0.0
1894,0.08333399584841389,0.0
1895,0.0666811741490182,0.0
1896,0.042154769885450215,0.0
1897,0.014370190727423352,0.0
1898,0.009092863510198921,0.0
1899,-0.002263246517809259,0.0
1900,0.29004948300880284,0.0
1901,3.831509252944318,0.0
1902,6.717237020962775,0.0
1903,-0.8533952167036553,0.0
1904,-1.673508973258207,0.0
1905,1.4638488690142917,0.0
1906,-0.6884050153804175,0.0
1907,0.23480893382281298,0.0
1908,0.05176492263746514,0.0
1909,-0.10276099572356445,0.0
1910,-0.003739006473762997,0.0
1911,0.02406565096145753,0.0
1912,0.01483675613602014,0.0
1913,0.025528794283763777,0.0
1914,-0.04351938680134455,0.0
1915,0.08492102781370439,0.0
1916,-0.03577724828632144,0.0
1917,0.043844944179749025,0.0
1918,0.062018598158661425,0.0
1919,-0.04043173613383206,0.0
1920,0.4162183222112198,0.0
1921,3.9134889671872797,0.0
1922,6.799601708235645,0.0
1923,-0.7025017086378583,0.0
1924,-1.6532364530873758,0.0
1925,1.499425745657647,0.0
1926,-0.7130625861905562,0.0
1927,0.16690245084570104,0.0
1928,0.11199361628999151,0.0
1929,-0.1081600748278455,0.0
1930,-0.02408146902513835,0.0
1931,0.07077467313668241,0.0
1932,-0.036234744120071286,0.0
1933,0.008921157216040403,0.0
1934,0.10848279313435873,0.0
1935,-0.02079141998641091,0.0
1936,-0.01748420893788924,0.0
1937,-0.047496113427102346,0.0
1938,0.04382975089143516,0.0
1939,0.06774926567672136,0.0
1940,0.3314922603404244,0.0
1941,3.911086694270291,0.0
1942,6.732999345791355,0.0
1943,-0.7430363475586569,0.0
1944,-1.640848049520678,0.0
1945,1.5466464556762531,0.0
1946,-0.7348766867228635,0.0
1947,0.2366541555293983,0.0
1948,0.023772968093202153,0.0
1949,-0.041320805636294686,0.0
1950,0.03211081395421886,0.0
1951,0.06170671703909096,0.0
1952,-0.05542098011233096,0.0
1953,-0.01699241025744186,0.0
1954,0.027746250837987506,0.0
1955,-0.0324369537131453,0.0
1956,0.051486600051027745,0.0
1957,0.01978113413234204,0.0
1958,0.0499103170749932,0.0
1959,-0.05799322592667253,0.0
1960,0.4020458115353082,0.0
1961,3.8384562795141615,0.0
1962,6.813007981645686,0.0
1963,-0.7801870664897773,0.0
1964,-1.5867922856534202,0.0
1965,1.4428487597384188,0.0
1966,-0.7390580187248358,0.0
1967,0.1792409479090501,0.0
1968,0.004076623208746185,0.0
1969,-0.12939166220216877,0.0
1970,0.11350814566599432,0.0
1971,0.0769381382667335,0.0
1972,-0.012947201313980243,0.0
1973,0.08294216099399483,0.0
1974,0.027655380237441386,0.0
1975,0.013201452160215274,0.0
1976,0.06194554982136725,0.0
1977,-0.0021124074886027383,0.0
1978,0.04218350579608654,0.0
1979,0.081953300571383,0.0
1980,0.4132819887167443,0.0
1981,3.9089290933436454,0.0
1982,6.814425532305961,0.0
1983,-0.7123064538795597,0.0
1984,-1.6207609348627134,0.0
1985,1.526966781635902,0.0
1986,-0.7210819460009668,0.0
1987,0.21804859473248958,0.0
1988,0.05109777799760654,0.0
1989,-0.021862359835194193,0.0
1990,0.02660605342332756,0.0
1991,0.021449531166876354,0.0
1992,0.07203504813850277,0.0
1993,0.08385067036697905,0.0
1994,-0.028361726214775625,0.0
1995,0.11686664671813551,0.0
1996,0.005281175638371209,0.0
1997,0.0028700641384045295,0.0
1998,0.1450440385493091,0.0
1999,0.05198669175919342,0.0
2000,0.42391122060724445,0.0
2001,4.0372476214930195,0.0
2002,6.8602916071504705,0.0
2003,-0.7315979280671204,0.0
2004,-1.5346676819911307,0.0
2005,1.5626192290065155,0.0
2006,-0.7712295707399415,0.0
2007,0.21763310330119218,0.0
2008,0.03262565285517366,0.0
2009,-0.04704812868778119,0.0
2010,-0.06475064054624728,0.0
2011,-0.05950034153214079,0.0
2012,-0.0019747320298521276,0.0
2013,0.01669093804459225,0.0
2014,0.014608537586546755,0.0
2015,0.1086282763745073,0.0
2016,-0.00592164697729437,0.0
2017,0.028582527530180663,0.0
2018,0.01092308478027854,0.0
2019,0.05806817694329289,0.0
2020,0.40819840535542323,0.0
2021,4.01870738905565,0.0
2022,6.681119086622941,0.0
2023,-0.816343510347531,0.0
2024,-1.6870700102805012,0.0
2025,1.4923615539944801,0.0
2026,-0.6964330667467509,0.0
2027,0.21567962723339765,0.0
2028,-0.019473423738891195,0.0
2029,0.033721145444625955,0.0
2030,0.0488653890582647,0.0
2031,0.05122086082842845,0.0
2032,0.0020341702723243593,0.0
2033,0.04030590430914905,0.0
2034,0.009927226772353102,0.0
2035,0.01833845859742886,0.0
2036,-0.01278673987982037,0.0
2037,-0.0612307877545356,0.0
2038,-0.027602978404002033,0.0
2039,0.014782544197769209,0.0
2040,0.34908274250583393,0.0
2041,3.9631362961632792,0.0
2042,6.790034891162033,0.0
2043,-0.7595781320757908,0.0
2044,-1.5236600080584457,0.0
2045,1.5770363656947053,0.0
2046,-0.7961071779066117,0.0
2047,0.13552454023027477,0.0
2048,-0.045524640152755175,0.0
2049,-0.016957801771645287,0.0
2050,0.030014500097239702,0.0
2051,0.0019626099566862204,0.0
2052,-0.022448507235601094,0.0
2053,0.03683146722586993,0.0
2054,0.007209062850755915,0.0
2055,0.030836073700199404,0.0
2056,-0.11614542177250252,0.0
2057,-0.031649705390834566,0.0
2058,-0.07854431837787089,0.0
2059,0.02045091352547235,0.0
2060,0.3672095046710595,0.0
2061,3.876655982309813,0.0
2062,6.620316531335723,0.0
2063,-0.8498179565320834,0.0
2064,-1.6308413577022807,0.0
2065,1.474492498315337,0.0
2066,-0.7524489298775126,0.0
2067,0.24811135709752175,0.0
2068,-0.10732696648854147,0.0
2069,-0.08383623455603226,0.0
2070,0.012252436089825902,0.0
2071,-0.03981883811510933,0.0
2072,-0.06809455987977392,0.0
2073,-0.04400065837655622,0.0
2074,0.020937393378565598,0.0
2075,0.04232716648230004,0.0
2076,0.02993067507213262,0.0
2077,-0.0648059572531711,0.0
2078,0.039866176613699615,0.0
2079,-0.016496976784239063,0.0
2080,0.40068924715225585,0.0
2081,3.876741112368484,0.0
2082,6.731159408308594,0.0
2083,-0.8366065922442791,0.0
2084,-1.6274145527954855,0.0
2085,1.4804768876434766,0.0
2086,-0.8095193630764689,0.0
2087,0.2689505679838072,0.0
2088,0.048830961751948294,0.0
2089,-0.013747063631921165,0.0
2090,0.06503365062326999,0.0
2091,-0.028983235886671545,0.0
2092,0.05801091277963556,0.0
2093,0.09569703342464736,0.0
2094,0.0418047238798169,0.0
2095,0.001098570974442421,0.0
2096,0.011413430287322193,0.0
2097,0.1075733615929663,0.0
2098,-0.05042602824713468,0.0
2099,0.06423503211140671,0.0
2100,0.35966395949832347,0.0
2101,3.952270678251341,0.0
2102,6.697260173985884,0.0
2103,-0.8388126455946715,0.0
2104,-1.6106508833903552,0.0
2105,1.4258542435142778,0.0
2106,-0.7780688684513095,0.0
2107,0.05190497246603687,0.0
2108,-0.08637963251910971,0.0
2109,-0.0649002039062058,0.0
2110,-0.0963584510256972,0.0
2111,-0.09916671805645513,0.0
2112,-0.07116128402416247,0.0
2113,-0.04864456016389154,0.0
2114,0.007263587627706458,0.0
2115,0.046999229810631274,0.0
2116,-0.1436633151910281,0.0
2117,-0.01630742891956468,0.0
2118,-0.05320813079610069,0.0
2119,-0.19022715365205733,0.0
2120,0.30462791537703476,0.0
2121,3.8809845682892004,0.0
2122,6.68470076315641,0.0
2123,-0.9050124717911125,0.0
2124,-1.5468198657829129,0.0
2125,1.396465107967094,0.0
2126,-0.8195639225422272,0.0
2127,0.17012531292398714,0.0
2128,-0.08325342440474895,0.0
2129,-0.052940818016076585,0.0
2130,0.006599634025915041,0.0
2131,-0.03786383137493246,0.0
2132,-0.08842573039849648,0.0
2133,-0.09008753630251747,0.0
2134,-0.03177116504284094,0.0
2135,-0.04671690144798038,0.0
2136,-0.05909336997109936,0.0
2137,0.0824705239920554,0.0
2138,0.011365568232571196,0.0
2139,0.03296028554017694,0.0
2140,0.3839646127255942,0.0
2141,3.940566003432742,0.0
2142,6.701317283231638,0.0
2143,-0.8708394632446264,0.0
2144,-1.5980716570701268,0.0
2145,1.5756414147296043,0.0
2146,-0.6871775937279974,0.0
2147,0.2770661094812771,0.0
2148,0.10339369793515174,0.0
2149,0.0763237654498356,0.0
2150,0.02938813660734507,0.0
2151,0.02309539003156577,0.0
2152,-0.04439493282519189,0.0
2153,-0.08833506148657799,0.0
2154,-0.12651709799763292,0.0
2155,-0.043178130235741,0.0
2156,-0.049837911646834265,0.0
2157,-0.06126061051202501,0.0
2158,0.03968383185159976,0.0
2159,-0.10036289362096704,0.0
2160,0.36702092593968283,0.0
2161,3.873074746947318,0.0
2162,6.6913602653242075,0.0
2163,-0.8437775045704191,0.0
2164,-1.5746348850533023,0.0
2165,1.4734550775469504,0.0
2166,-0.8368213142360663,0.0
2167,0.1971589737601458,0.0
2168,0.018251773948727158,0.0
2169,-0.020488419081247905,0.0
2170,-0.09967156089029547,0.0
2171,-0.04161267875287729,0.0
2172,-0.11041056099160465,0.0
2173,0.02880500689883793,0.0
2174,-0.12968992909491336,0.0
2175,-0.019508088585672247,0.0
2176,0.009682011378322065,0.0
2177,0.05045778035577053,0.0
2178,-0.11019374673341881,0.0
2179,0.003958025789862596,0.0
2180,0.32670485284954437,0.0
2181,3.7668074136512493,0.0
2182,6.682479220841603,0.0
2183,-0.879899222718945,0.0
2184,-1.6214840869323326,0.0
2185,1.4739612887353588,0.0
2186,-0.7748273299215231,0.0
2187,0.1313764657917304,0.0
2188,-0.06098262593274202,0.0
2189,-0.10041738696548128,0.0
2190,-0.0029515291621976837,0.0
2191,-0.06190985940817153,0.0
2192,-0.012620506539419072,0.0
2193,-0.020399474418612465,0.0
2194,0.00682696714411532,0.0
2195,-0.02584530673480339,0.0
2196,-0.010001473665699019,0.0
2197,0.03169136957993527,0.0
2198,-0.09332329403259154,0.0
2199,0.040993758296679284,0.0
2200,0.2760991101593424,0.0
2201,3.9349018488342513,0.0
2202,6.685147090883466,0.0
2203,-0.8465850779947127,0.0
2204,-1.6279496127967974,0.0
2205,1.4272788923977497,0.0
2206,-0.7879745641392931,0.0
2207,0.1798877841942867,0.0
2208,-0.10459201243330446,0.0
2209,-0.12980471858532688,0.0
2210,-0.10332093001760648,0.0
2211,-0.08894459092480927,0.0
2212,-0.0824814825447334,0.0
2213,-0.06376046071584852,0.0
2214,-0.06602182753455796,0.0
2215,-0.02332719646762297,0.0
2216,-0.020802588078952876,0.0
2217,-0.041703003182528384,0.0
2218,-0.17215382189534212,0.0
2219,-0.018831513801771414,0.0
2220,0.22249848384003668,0.0
2221,3.9113613344509495,0.0
2222,6.73291281694754,0.0
2223,-0.8774729083118966,0.0
2224,-1.5986624750105753,0.0
2225,1.4234232240200364,0.0
2226,-0.8337824043447729,0.0
2227,0.11082584489672723,0.0
2228,-0.02455137803915899,0.0
2229,-0.10871646882119518,0.0
2230,-0.06749750327438922,0.0
2231,-0.041741534691144375,0.0
2232,-0.09257134418800753,0.0
2233,0.022724156682827512,0.0
2234,-0.03194085265337058,0.0
2235,-0.10243456781045274,0.0
2236,0.014873821820936023,0.0
2237,0.003704382119695891,0.0
2238,-0.06327131788618905,0.0
2239,-0.14944856357835978,0.0
2240,0.3008146699454331,0.0
2241,3.8335958636333918,0.0
2242,6.735629655493296,0.0
2243,-0.8033455605477623,0.0
2244,-1.624808687369622,0.0
2245,1.5120101339658956,0.0
2246,-0.7501744644831597,0.0
2247,0.20386274399727566,0.0
2248,0.005488460510561694,0.0
2249,0.007013117334859173,0.0
2250,0.020434046507146565,0.0
2251,0.03435643070657726,0.0
2252,-0.0007586500757896762,0.0
2253,-0.000957681148163133,0.0
2254,0.021670695045844287,0.0
2255,0.07277165043362017,0.0
2256,-0.08299814683894646,0.0
2257,-0.026005028474901555,0.0
2258,-0.10520416388920822,0.0
2259,-0.024341760996396476,0.0
2260,0.2434807617330302,0.0
2261,3.7868887418318145,0.0
2262,6.606520426817221,0.0
2263,-1.0142769072163578,0.0
2264,-1.6360266985832967,0.0
2265,1.428066236312267,0.0
2266,-0.8088182157640254,0.0
2267,0.10906676814922334,0.0
2268,-0.053579054480521804,0.0
2269,-0.17018927847868046,0.0
2270,0.07953514775414186,0.0
2271,-0.03891845930522249,0.0
2272,0.07134205167356406,0.0
2273,-0.020797839735626655,0.0
2274,0.019449017752720725,0.0
2275,-0.005677671425420052,0.0
2276,0.03612974026245431,0.0
2277,0.0531233802656433,0.0
2278,-0.0013912018052589514,0.0
2279,0.029481019303640974,0.0
2280,0.40735106620701345,0.0
2281,3.9420687346107264,0.0
2282,6.7944019496344055,0.0
2283,-0.7934588576787033,0.0
2284,-1.6032513760968725,0.0
2285,1.5337617545799525,0.0
2286,-0.7139213458304763,0.0
2287,0.2999655769580857,0.0
2288,-0.026077603261226615,0.0
2289,0.011933134751678846,0.0
2290,0.002762191434207365,0.0
2291,-0.00416356970183579,0.0
2292,-0.017195028408707704,0.0
2293,0.04201073712728494,0.0
2294,-0.035596744585174374,0.0
2295,-0.030686673030316587,0.0
2296,-0.000794151595532467,0.0
2297,0.010539800277052942,0.0
2298,0.08617618924018816,0.0
2299,-0.013428372969033639,0.0
2300,0.32613387743644334,0.0
2301,3.8747571198821245,0.0
2302,6.775410741716638,0.0
2303,-0.8059005409260193,0.0
2304,-1.561649151672865,0.0
2305,1.528443269030972,0.0
2306,-0.7514468627035841,0.0
2307,0.15981862008090028,0.0
2308,-0.05061165738439416,0.0
2309,0.034692961606852105,0.0
2310,0.056693210437304464,0.0
2311,0.02334681413418722,0.0
2312,0.01889437771401609,0.0
2313,-0.03434896804997402,0.0
2314,-0.05899764420748231,0.0
2315,-0.038479920379785176,0.0
2316,0.1316264870122065,0.0
2317,0.009561451332763855,0.0
2318,0.025619743661346686,0.0
2319,-0.010006893081405021,0.0
2320,0.41907926487222447,0.0
2321,3.8256275003861755,0.0
2322,6.738330962736217,0.0
2323,-0.9217936078891574,0.0
2324,-1.5369400978604628,0.0
2325,1.411445167914403,0.0
2326,-0.7279329640476273,0.0
2327,0.27756773682889085,0.0
2328,-0.023485734699118622,0.0
2329,0.025719736305295532,0.0
2330,0.08853290049391097,0.0
2331,0.08268433123554235,0.0
2332,0.060444424038037015,0.0
2333,0.07191506906647667,0.0
2334,-0.029076622579010548,0.0
2335,0.06691907982993121,0.0
2336,-0.020954200001075604,0.0
2337,-0.015416143071057823,0.0
2338,0.0002252785659737147,0.0
2339,-0.021213180848087175,0.0
2340,0.4812944159548186,0.0
2341,3.8579509005775896,0.0
2342,6.747199846843168,0.0
2343,-0.8188383594293416,0.0
2344,-1.601562521429892,0.0
2345,1.4888165697996978,0.0
2346,-0.7457336617654179,0.0
2347,0.19580980262858133,0.0
2348,0.0004092833212787847,0.0
2349,0.028977797844492805,0.0
2350,0.02937221341158877,0.0
2351,0.08739987274671467,0.0
2352,-0.004590467842532489,0.0
2353,0.12192349662786135,0.0
2354,0.0880371640402376,0.0
2355,-0.0225393679213807,0.0
2356,-0.023294921878774567,0.0
2357,0.08211856202310171,0.0
2358,-0.018808563884732996,0.0
2359,0.021169857774350688,0.0
2360,0.31228167111232724,0.0
2361,3.933335009546467,0.0
2362,6.7617349416443915,0.0
2363,-0.7831526806371594,0.0
2364,-1.5205617668133988,0.0
2365,1.5498530132685926,0.0
2366,-0.741106434895179,0.0
2367,0.0768961987770449,0.0
2368,-0.03767488864949417,0.0
2369,-0.112005858344498,0.0
2370,0.08048274825426846,0.0
2371,-0.17179944128815422,0.0
2372,-0.01809666599297289,0.0
2373,0.004781811654709266,0.0
2374,-0.01066536491523841,0.0
2375,0.09317180990384491,0.0
2376,0.05517951680422136,0.0
2377,0.12146741777400971,0.0
2378,0.1340473430251174,0.0
2379,0.06953171305060421,0.0
2380,0.43821218446132,0.0
2381,4.015418553711607,0.0
2382,6.7384643226995165,0.0
2383,-0.8410223471697406,0.0
2384,-1.5230352965128173,0.0
2385,1.4112221211297344,0.0
2386,-0.7669949826984322,0.0
2387,0.2076629499380693,0.0
2388,-0.02725996801596125,0.0
2389,0.1121153840757194,0.0
2390,0.08616739721659594,0.0
2391,0.05611091700119209,0.0
2392,0.0027759251997011153,0.0
2393,0.04855180769843572,0.0
2394,0.07249007358252335,0.0
2395,0.07000497204712902,0.0
2396,0.06272101634345655,0.0
2397,0.04168530323230464,0.0
2398,0.04866439219272148,0.0
2399,0.07860777255540026,0.0
2400,0.36603854480627585,0.0
2401,3.989327717158447,0.0
2402,6.810162577406349,0.0
2403,-0.8841141696266848,0.0
2404,-1.3943353911256577,0.0
2405,1.5801842321601363,0.0
2406,-0.7181733905804205,0.0
2407,0.25414158117273017,0.0
2408,0.05451674882227079,0.0
2409,-0.06440480477543979,0.0
2410,0.0990922249343957,0.0
2411,0.019416023272486475,0.0
2412,0.07208881518122554,0.0
2413,-0.0328065929465125,0.0
2414,0.05424843152532244,0.0
2415,-0.023091429727286263,0.0
2416,0.0749332403898133,0.0
2417,0.010410354368483988,0.0
2418,-0.10498468036584904,0.0
2419,0.003963825671134949,0.0
2420,0.38358546721543235,0.0
2421,3.9069307164626332,0.0
2422,6.639701319759314,0.0
2423,-0.8791992409098031,0.0
2424,-1.57380378560218,0.0
2425,1.537552389395196,0.0
2426,-0.7912112652509363,0.0
2427,0.224544230293819,0.0
2428,0.021877089934199234,0.0
2429,-0.033431666660120145,0.0
2430,-0.004987072462523508,0.0
2431,0.0647980037964517,0.0
2432,-0.04843059459417477,0.0
2433,0.0057484889593262655,0.0
2434,0.0693273230419649,0.0
2435,-0.027108259650035237,0.0
2436,0.06428290596787523,0.0
2437,-0.05563481011972206,0.0
2438,0.07159882558554725,0.0
2439,-0.02959961024992827,0.0
2440,0.2625222705530442,0.0
2441,3.8953609968992997,0.0
2442,6.572318329563295,0.0
2443,-0.9716201277021531,0.0
2444,-1.630114028759628,0.0
2445,1.45387523352146,0.0
2446,-0.792562709585724,0.0
2447,0.2319436915513688,0.0
2448,-0.06466722540064099,0.0
2449,-0.034963869929024755,0.0
2450,-0.13759805120293558,0.0
2451,-0.059694935270811496,0.0
2452,0.04567846512636338,0.0
2453,-0.04749870259194987,0.0
2454,-0.015950949936040123,0.0
2455,0.018313577186128555,0.0
2456,0.055964443462430166,0.0
2457,0.04681305299424734,0.0
2458,0.015736630172412433,0.0
2459,0.052230037657873214,0.0
2460,0.36012986441789185,0.0
2461,4.03253640654893,0.0
2462,6.554563053615305,0.0
2463,-0.8972261253978902,0.0
2464,-1.5484412687096982,0.0
2465,1.5547429398450998,0.0
2466,-0.7876645895374664,0.0
2467,0.2857515485638127,0.0
2468,-0.0774460829179327,0.0
2469,-0.0023241823275674672,0.0
2470,0.027065163247238233,0.0
2471,-0.03822885802840844,0.0
2472,-0.0287737632161895,0.0
2473,-0.03449408308020846,0.0
2474,0.05374888903843386,0.0
2475,0.05047825769847723,0.0
2476,0.0404946822031755,0.0
2477,0.0318633265189277,0.0
2478,-0.038050090161266044,0.0
2479,0.0026033654180710637,0.0
2480,0.34713817791360824,0.0
2481,3.8860161773395236,0.0
2482,6.665390476839231,0.0
2483,-0.9028835901322464,0.0
2484,-1.589757124059758,0.0
2485,1.409232726437178,0.0
2486,-0.8852811169828914,0.0
2487,0.21592366623110423,0.0
2488,0.07450573733062085,0.0
2489,-0.031996758149857224,0.0
2490,0.022568314623677484,0.0
2491,-0.04431079808933752,0.0
2492,0.0673321163621258,0.0
2493,0.0012694284957563105,0.0
2494,0.024508957803121827,0.0
2495,0.014167955624052826,0.0
2496,-0.040384387703590326,0.0
2497,-0.020924033719685202,0.0
2498,0.009274816099519556,0.0
2499,0.05831729748812142,0.0
2500,0.38427223929505816,0.0
2501,3.970550009247445,0.0
2502,6.712075081943283,0.0
2503,-0.9684630626298492,0.0
2504,-1.5795876546684362,0.0
2505,1.5154349247478467,0.0
2506,-0.8183999012409077,0.0
2507,0.20120025385498183,0.0
2508,-0.06598252235842483,0.0
2509,-0.06174799354373591,0.0
2510,-0.046933882521021146,0.0
2511,-0.15363745361151981,0.0
2512,-0.029143347440144563,0.0
2513,0.04739654289631408,0.0
2514,-0.037366047054094215,0.0
2515,-0.10721168628289973,0.0
2516,-0.08248417329322932,0.0
2517,-0.1574203850027037,0.0
2518,-0.0165776684697367,0.0
2519,-0.07981492677276716,0.0
2520,0.3634408305524374,0.0
2521,4.002279241511472,0.0
2522,6.754547512847656,0.0
2523,-0.9275097359654004,0.0
2524,-1.557851900102087,0.0
2525,1.4875174685774832,0.0
2526,-0.8114903964358746,0.0
2527,0.11052272917049766,0.0
2528,0.009994677099884636,0.0
2529,-0.14170330212212273,0.0
2530,-0.06540541837535527,0.0
2531,0.06621146528580393,0.0
2532,-0.002713512910909835,0.0
2533,-0.03729502041671625,0.0
2534,-0.060043736071771055,0.0
2535,-0.022706789043362444,0.0
2536,-0.07139815500114632,0.0
2537,-0.09638142334617149,0.0
2538,-0.027523951309158877,0.0
2539,0.03372739144766067,0.0
2540,0.2852547566324609,0.0
2541,3.9591311880802134,0.0
2542,6.6906792122818395,0.0
2543,-0.9324274929042388,0.0
2544,-1.518017320992749,0.0
2545,1.615047345437458,0.0
2546,-0.7646805137798528,0.0
2547,0.2068142547481502,0.0
2548,-0.018665542706162434,0.0
2549,0.009496002508566123,0.0
2550,0.022369623795358624,0.0
2551,0.013394570433977907,0.0
2552,-0.08125155660497518,0.0
2553,0.09051985192582382,0.0
2554,0.04151775315882581,0.0
2555,-0.03794746712322862,0.0
2556,0.03359886509244579,0.0
2557,0.05591666304857512,0.0
2558,0.02727016613331206,0.0
2559,0.0071695113210987,0.0
2560,0.42294218940665,0.0
2561,3.914724364427663,0.0
2562,6.724808281046414,0.0
2563,-0.8976750611628216,0.0
2564,-1.525759179328594,0.0
2565,1.4208277868557426,0.0
2566,-0.8371829488915805,0.0
2567,0.17523165638603386,0.0
2568,-0.11847826756564703,0.0
2569,-0.13288564619655302,0.0
2570,0.049590290458457933,0.0
2571,0.03658777270111011,0.0
2572,-0.02919116099233711,0.0
2573,-0.07070590570450715,0.0
2574,-0.03972963345888825,0.0
2575,-0.038077436732385575,0.0
2576,-0.0416539551289227,0.0
2577,0.05594230051138195,0.0
2578,-0.08786128177409058,0.0
2579,0.07304844102170506,0.0
2580,0.342887399574758,0.0
2581,3.9744893794924634,0.0
2582,6.595383778016927,0.0
2583,-1.0518500084380462,0.0
2584,-1.5968526167588544,0.0
2585,1.4327420435853448,0.0
2586,-0.8122619756546021,0.0
2587,0.15680596521006265,0.0
2588,-0.10200711447992034,0.0
2589,-0.14872407077527175,0.0
2590,-0.03625516961278956,0.0
2591,-0.04387680917675095,0.0
2592,-0.06849810864277174,0.0
2593,-0.0053253984430610135,0.0
2594,-0.15310241765923893,0.0
2595,-0.10835129504926616,0.0
2596,-0.04185225847231812,0.0
2597,0.003179516484073247,0.0
2598,-0.0490478999744596,0.0
2599,0.010816749479160927,0.0
2600,0.2951763647202596,0.0
2601,3.9767823494445267,0.0
2602,6.625402944564795,0.0
2603,-0.9908867784033435,0.0
2604,-1.6382573522080064,0.0
2605,1.4518339250818943,0.0
2606,-0.8869826828576138,0.0
2607,0.17583914736700815,0.0
2608,-0.1486728013250152,0.0
2609,-0.026593082722672374,0.0
2610,0.0028570825586361516,0.0
2611,-0.07420090276787909,0.0
2612,-0.050666911027106507,0.0
2613,0.07783192107891163,0.0
2614,-0.05117049407510853,0.0
2615,0.02647363476214018,0.0
2616,-0.08945133241483524,0.0
2617,0.11810077641194533,0.0
2618,0.0304111437013653,0.0
2619,0.06724367499112334,0.0
2620,0.23880528215956615,0.0
2621,3.9117798602421585,0.0
2622,6.676724244437844,0.0
2623,-0.8996178955695292,0.0
2624,-1.504500132490823,0.0
2625,1.4673552826701297,0.0
2626,-0.8191193294998262,0.0
2627,0.2430659367983348,0.0
2628,0.0009902038813744659,0.0
2629,-0.019785842731560456,0.0
2630,-0.0024750859276687492,0.0
2631,-0.05483609991657121,0.0
2632,0.03223682458599958,0.0
2633,-0.05678252084884316,0.0
2634,-0.0671643455009722,0.0
2635,0.01305087883667306,0.0
2636,0.022023711218351606,0.0
2637,-0.02298817368161331,0.0
2638,-0.02038397527985927,0.0
2639,0.061209471372324915,0.0
2640,0.39635291211068263,0.0
2641,4.034371523870414,0.0
2642,6.655242508808743,0.0
2643,-0.9682088008547539,0.0
2644,-1.5038651204021964,0.0
2645,1.457852589194986,0.0
2646,-0.8244332367330378,0.0
2647,0.16480113059893128,0.0
2648,-0.06446850275317714,0.0
2649,-0.022519771019055383,0.0
2650,0.016893249803387772,0.0
2651,-0.04978499684096459,0.0
2652,0.050754968158391325,0.0
2653,-0.020044969103105433,0.0
2654,-0.009360942939411202,0.0
2655,-0.004602722670525767,0.0
2656,0.06032354534395847,0.0
2657,-0.05435298621391959,0.0
2658,0.05873039697609965,0.0
2659,-0.00010314517235736863,0.0
2660,0.47761177485434103,0.0
2661,4.030520648344517,0.0
2662,6.6781227159703676,0.0
2663,-0.9630426708510815,0.0
2664,-1.4559660178053735,0.0
2665,1.3976830460893561,0.0
2666,-0.8413974043507771,0.0
2667,0.17052237117663185,0.0
2668,0.04468818281758115,0.0
2669,-0.04322152331015323,0.0
2670,0.07060479493939574,0.0
2671,0.01092077930737373,0.0
2672,-0.034336416811497135,0.0
2673,0.02117307056326636,0.0
2674,0.010140502513972508,0.0
2675,0.00842453881947933,0.0
2676,-0.007665061741948706,0.0
2677,0.036403930834852403,0.0
2678,0.004252817796373079,0.0
2679,-0.06406023983513875,0.0
2680,0.4160421367894037,0.0
2681,4.003110772178505,0.0
2682,6.756640882028079,0.0
2683,-0.9667565852824037,0.0
2684,-1.4408854218077445,0.0
2685,1.4418284384882767,0.0
2686,-0.7768968574123502,0.0
2687,0.20680696418293432,0.0
2688,-0.038896345749960703,0.0
2689,-0.010191028522667895,0.0
2690,0.019347227378032766,0.0
2691,0.08189932167644612,0.0
2692,-0.07155896215025358,0.0
2693,-0.0006926910375817099,0.0
2694,-0.04085876188556084,0.0
2695,-0.03020551966380201,0.0
2696,0.0763996711845847,0.0
2697,0.0230223361827636,0.0
2698,0.0026053349879863706,0.0
2699,0.03011904951448108,0.0
2700,0.39697527403708505,0.0
2701,3.9696774839858926,0.0
2702,6.6988217125209575,0.0
2703,-1.0073912591175267,0.0
2704,-1.3752477346781462,0.0
2705,1.504118619642594,0.0
2706,-0.6860213306689288,0.0
2707,0.3257072179292192,0.0
2708,0.056945974505848526,0.0
2709,0.06091392272330913,0.0
2710,0.18307679007899907,0.0
2711,0.12784133868714515,0.0
2712,0.0818102196725091,0.0
2713,0.09546155316069528,0.0
2714,0.07913347740505676,0.0
2715,0.05239243889288754,0.0
2716,0.11556842421131008,0.0
2717,0.09497656326388212,0.0
2718,0.07511312804960063,0.0
2719,0.007686185447372203,0.0
2720,0.37474719952060176,0.0
2721,4.002274070192156,0.0
2722,6.696803429504246,0.0
2723,-0.9089743183547183,0.0
2724,-1.438154416359625,0.0
2725,1.4792898092046278,0.0
2726,-0.6984554197466589,0.0
2727,0.18071252805851232,0.0
2728,0.04257634020984539,0.0
2729,-0.018146554621810692,0.0
2730,-0.03635862707466839,0.0
2731,0.041447823473888805,0.0
2732,-0.05596272182097058,0.0
2733,0.0561257143624036,0.0
2734,0.0739797322385455,0.0
2735,0.04111719806192285,0.0
2736,0.022728992706478966,0.0
2737,-0.050688148655854824,0.0
2738,0.018216225561941274,0.0
2739,0.07866971510326008,0.0
2740,0.3696380799285869,0.0
2741,3.998423401445017,0.0
2742,6.489988030927831,0.0
2743,-0.967702425401354,0.0
2744,-1.5506818783454606,0.0
2745,1.4104817171673631,0.0
2746,-0.7482095994152123,0.0
2747,0.11631963076732682,0.0
2748,-0.02645468333065568,0.0
2749,-0.007997021148071642,0.0
2750,-0.041449513921596196,0.0
2751,0.03639476660556742,0.0
2752,0.06109333732996035,0.0
2753,0.018346927639409146,0.0
2754,0.07085544394662063,0.0
2755,-0.015992536005151547,0.0
2756,-0.030381647351328547,0.0
2757,0.09367735327498855,0.0
2758,0.03783916897169314,0.0
2759,0.11935008524433202,0.0
2760,0.4398762041001205,0.0
2761,4.039905783133897,0.0
2762,6.649383710735696,0.0
2763,-0.9303532793959775,0.0
2764,-1.4881254102113046,0.0
2765,1.439218100820836,0.0
2766,-0.8500946901439873,0.0
2767,0.34433381068890745,0.0
2768,0.08587506638117887,0.0
2769,-0.014708666563373565,0.0
2770,0.04564535562897699,0.0
2771,0.03660898454204152,0.0
2772,0.07164699179013072,0.0
2773,-0.04454278872029327,0.0
2774,-0.03956058894901862,0.0
2775,0.028175787442504055,0.0
2776,0.004858291138802234,0.0
2777,0.08061254412285404,0.0
2778,0.11235352028880297,0.0
2779,0.08255608538662407,0.0
2780,0.39179382387907363,0.0
2781,4.014805535247343,0.0
2782,6.685576007216523,0.0
2783,-0.9166211131680334,0.0
2784,-1.4414622541521669,0.0
2785,1.469674874982337,0.0
2786,-0.6704535969053652,0.0
2787,0.23927973803442068,0.0
2788,-0.011523545749114579,0.0
2789,-0.03798478821198148,0.0
2790,0.016874249858366514,0.0
2791,-0.058842783367766216,0.0
2792,0.0317669604127888,0.0
2793,0.061050593322942825,0.0
2794,0.004267248527158518,0.0
2795,-0.02467021013170556,0.0
2796,0.11452928051004857,0.0
2797,0.039387111554850085,0.0
2798,0.046612843532421726,0.0
2799,0.004929085158730265,0.0
2800,0.3607649118123463,0.0
2801,4.037284058381183,0.0
2802,6.746931918192015,0.0
2803,-0.9488145240711794,0.0
2804,-1.516835183063109,0.0
2805,1.4687121052294978,0.0
2806,-0.7272858628778961,0.0
2807,0.2165714751373147,0.0
2808,0.027198610458820372,0.0
2809,-0.16141472396637507,0.0
2810,0.028137026013418553,0.0
2811,-0.017961700128563497,0.0
2812,0.0152631611022722,0.0
2813,-0.012407535282916535,0.0
2814,-0.0013565043466021998,0.0
2815,-0.08905764762829115,0.0
2816,-0.02485996607903207,0.0
2817,-0.035714576952619516,0.0
2818,-0.07226307890497885,0.0
2819,-0.024964286714405388,0.0
2820,0.3570177334147469,0.0
2821,3.9244211133403524,0.0
2822,6.623048017732145,0.0
2823,-1.020365990682193,0.0
2824,-1.4613566976897157,0.0
2825,1.43744354418093,0.0
2826,-0.8447615796571009,0.0
2827,0.14698148848387588,0.0
2828,-0.08277365920652437,0.0
2829,-0.13951093160483755,0.0
2830,-0.05584742491506567,0.0
2831,-0.07997692127820005,0.0
2832,-0.08303317866200412,0.0
2833,0.0017122244345940257,0.0
2834,-0.030751471192926386,0.0
2835,-0.04039787003172461,0.0
2836,-0.14207826518582348,0.0
2837,-0.05009854934448027,0.0
2838,-0.11115781971183951,0.0
2839,-0.12108427496703793,0.0
2840,0.3746047886724355,0.0
2841,3.9228914355226694,0.0
2842,6.50253040964694,0.0
2843,-1.0893513470854093,0.0
2844,-1.5614827726849638,0.0
2845,1.3554364699182213,0.0
2846,-0.8622333719423529,0.0
2847,0.14707856163951302,0.0
2848,0.016210578936177056,0.0
2849,-0.07985418650941487,0.0
2850,-0.0901202376510044,0.0
2851,-0.09470824393732293,0.0
2852,-0.07432234144137874,0.0
2853,-0.011747930847935753,0.0
2854,-0.16816701204958528,0.0
2855,0.0790924258390668,0.0
2856,-0.005731751703474022,0.0
2857,-0.09088006112913607,0.0
2858,0.013965531953147425,0.0
2859,-0.10025142637851552,0.0
2860,0.24553347738140005,0.0
2861,3.8758429067559597,0.0
2862,6.590594957563772,0.0
2863,-1.0487864562776745,0.0
2864,-1.5181832454470814,0.0
2865,1.396328417591491,0.0
2866,-0.7728586980169871,0.0
2867,0.17836095629294357,0.0
2868,-0.04824256324177241,0.0
2869,-0.018479255092221786,0.0
2870,-0.054318371296848696,0.0
2871,-0.025910895663843775,0.0
2872,-0.035433874769348214,0.0
2873,-0.07007990084403361,0.0
2874,-0.10918717988702775,0.0
2875,-0.027568968584983877,0.0
2876,0.03285526090128028,0.0
2877,-0.027838330161591315,0.0
2878,-0.049784825800799445,0.0
2879,-0.02845794010062306,0.0
2880,0.3371269442669656,0.0
2881,3.9039182002974417,0.0
2882,6.568148519978474,0.0
2883,-1.0741114303143826,0.0
2884,-1.531538008895121,0.0
2885,1.383637578866107,0.0
2886,-0.7793319234599131,0.0
2887,0.28445110800520473,0.0
2888,-0.030172686990513453,0.0
2889,-0.0501607269216334,0.0
2890,-0.009125742367967,0.0
2891,-0.06438040066956156,0.0
2892,0.025956961589127688,0.0
2893,-0.06085478606442067,0.0
2894,-0.0986305375095293,0.0
2895,-0.04304987843941764,0.0
2896,-0.07716820337858177,0.0
2897,-0.05659493558670558,0.0
2898,-0.026799621599162136,0.0
2899,-0.034531945384065565,0.0
2900,0.4401751550199528,0.0
2901,3.987584163510086,0.0
2902,6.68175704152064,0.0
2903,-1.0918353441712143,0.0
2904,-1.4713047709249336,0.0
2905,1.4278800590365233,0.0
2906,-0.7782007243869866,0.0
2907,0.20669609741114608,0.0
2908,-0.060200303052540774,0.0
2909,-0.15366293871414344,0.0
2910,-0.019475797931580878,0.0
2911,0.04678572260834499,0.0
2912,-0.05494685969948484,0.0
2913,-0.031257355317372525,0.0
2914,-0.036715433688633226,0.0
2915,-0.04415615984883195,0.0
2916,-0.06763094835485065,0.0
2917,-0.029787558447908674,0.0
2918,-0.009086313222116511,0.0
2919,-0.0314539750650641,0.0
2920,0.3540078637472038,0.0
2921,3.9006364798008804,0.0
2922,6.609638968104681,0.0
2923,-1.0539811986965169,0.0
2924,-1.5932086970832549,0.0
2925,1.3774558759979125,0.0
2926,-0.8171378104616647,0.0
2927,0.27862829692600677,0.0
2928,-0.08603728185617758,0.0
2929,-0.03255664266740235,0.0
2930,-0.10138836832803863,0.0
2931,0.012787241699672033,0.0
2932,-0.07037956640442805,0.0
2933,-0.0010514620032508713,0.0
2934,-0.011752003586707405,0.0
2935,0.026693836095021236,0.0
2936,-0.06286703767865506,0.0
2937,-0.027552175127847026,0.0
2938,-0.01806845712320817,0.0
2939,-0.08809914579208625,0.0
2940,0.3810006692704061,0.0
2941,4.107772647639048,0.0
2942,6.676190138106721,0.0
2943,-1.0361158152343093,0.0
2944,-1.502087387342257,0.0
2945,1.38520443159201,0.0
2946,-0.8613702415235266,0.0
2947,0.23272910862003718,0.0
2948,-0.016857024835325758,0.0
2949,-0.015402553223547277,0.0
2950,0.0912282192867338,0.0
2951,-0.022918829180065603,0.0
2952,0.06666640995506522,0.0
2953,-0.0533389421262121,0.0
2954,-0.06718738132234464,0.0
2955,-0.009390376732523603,0.0
2956,0.09482317142078917,0.0
2957,-0.04187328259584809,0.0
2958,-0.07359724170540022,0.0
2959,-0.03690065749480989,0.0
2960,0.3974379430837407,0.0
2961,4.04039545717311,0.0
2962,6.6148436980011205,0.0
2963,-1.0444459001623718,0.0
2964,-1.5316375605431871,0.0
2965,1.4851441542073194,0.0
2966,-0.8585623617333995,0.0
2967,0.1502980687526476,0.0
2968,-0.08244188258966724,0.0
2969,-0.14236067649591305,0.0
2970,0.08168401593539194,0.0
2971,-0.05126999464598443,0.0
2972,-0.03249585494900539,0.0
2973,0.09009118561753877,0.0
2974,0.04934256414308861,0.0
2975,-0.09503969437314357,0.0
2976,0.008113538437498211,0.0
2977,-0.04588807686560845,0.0
2978,0.042692763059324595,0.0
2979,0.11622056692266913,0.0
2980,0.3253752130592943,0.0
2981,4.121103752089292,0.0
2982,6.570659573002944,0.0
2983,-1.04111492878057,0.0
2984,-1.445560166019864,0.0
2985,1.3775715680809406,0.0
2986,-0.7627223127741519,0.0
2987,0.2969652352221397,0.0
2988,0.05185942071226759,0.0
2989,-0.03042570283819801,0.0
2990,-0.0802839236093654,0.0
2991,0.04295331501104461,0.0
2992,0.08261457813660282,0.0
2993,-0.0793844664455031,0.0
2994,0.05710007924879927,0.0
2995,-0.04292500140435182,0.0
2996,-0.03234175243599907,0.0
2997,-0.06251434894823787,0.0
2998,0.019615500857993372,0.0
2999,-0.034207903741893496,0.0
3000,0.2892869865911548,0.0
3001,3.9947169928816155,0.0
3002,6.598573908160784,0.0
3003,-1.1746790025923344,0.0
3004,-1.5535337867919687,0.0
3005,1.380075012610134,0.0
3006,-0.8522541969022215,0.0
3007,0.1880452217375737,0.0
3008,-0.043752855538211066,0.0
3009,-0.10308968856108078,0.0
3010,-0.05902647824521549,0.0
3011,-0.035217568697060615,0.0
3012,-0.1424879395050284,0.0
3013,0.03950719541094776,0.0
3014,-0.10792972040775045,0.0
3015,-0.09701109094888119,0.0
3016,-0.0012651816140329328,0.0
3017,-0.043675983451708304,0.0
3018,-0.027102303018015958,0.0
3019,0.014450863092227841,0.0
3020,0.3497562157759664,0.0
3021,4.131680985466867,0.0
3022,6.671239076300877,0.0
3023,-1.1066633013252454,0.0
3024,-1.5255898862115993,0.0
3025,1.3763690469723475,0.0
3026,-0.8126958482111596,0.0
3027,0.21488290601209123,0.0
3028,-0.07495704734409511,0.0
3029,-0.07145121413153904,0.0
3030,-0.06491397434423649,0.0
3031,-0.033904113275366986,0.0
3032,0.05326461192416322,0.0
3033,-0.07446098107883287,0.0
3034,-0.04763762651317289,0.0
3035,-0.0081725504555801,0.0
3036,-0.03771540540610343,0.0
3037,0.026219246619833606,0.0
3038,0.031615437112070294,0.0
3039,-0.053881022677647716,0.0
3040,0.2550093837815193,0.0
3041,3.9406819196778775,0.0
3042,6.563443579446875,0.0
3043,-1.1297350775496344,0.0
3044,-1.500186157408468,0.0
3045,1.477039342876805,0.0
3046,-0.8174341073635344,0.0
3047,0.2092785221361439,0.0
3048,-0.0008544091714018584,0.0
3049,-0.050314502568440764,0.0
3050,-0.0406885274875774,0.0
3051,-0.08491468780963146,0.0
3052,0.01157713713937502,0.0
3053,-0.06987292790390945,0.0
3054,-0.02391975099771295,0.0
3055,-0.1206523380699526,0.0
3056,-0.072251122562337,0.0
3057,-0.06985834119344138,0.0
3058,-0.15077443309083327,0.0
3059,-0.09588980028550917,0.0
3060,0.3678200280941229,0.0
3061,3.989248438830948,0.0
3062,6.5466115204081685,0.0
3063,-1.0545392501661988,0.0
3064,-1.5740519900316947,0.0
3065,1.4107680040035782,0.0
3066,-0.8653595096811406,0.0
3067,0.15699691734496574,0.0
3068,-0.06393313781312068,0.0
3069,-0.015134163348013992,0.0
3070,-0.09615685283515825,0.0
3071,-0.05605644359796286,0.0
3072,-0.00691414669534373,0.0
3073,-0.07755243597266698,0.0
3074,0.06611617615577431,0.0
3075,-0.09887402764618713,0.0
3076,-0.012377808669376395,0.0
3077,-0.08664511281073226,0.0
3078,-0.05401674844860501,0.0
3079,-0.028597822095212035,0.0
3080,0.43714876760942334,0.0
3081,3.9674333157760118,0.0
3082,6.562807482515356,0.0
3083,-1.064332667294538,0.0
3084,-1.502582347557164,0.0
3085,1.3598773575942624,0.0
3086,-0.8070154101353754,0.0
3087,0.1723461435643997,0.0
3088,-0.11064300588103602,0.0
3089,-0.09546491346204233,0.0
3090,0.07046516214844327,0.0
3091,-0.03902511830037455,0.0
3092,-0.06978908592261034,0.0
3093,-0.029220960691357746,0.0
3094,-0.023900381413518582,0.0
3095,0.010017630284291089,0.0
3096,0.021974872508133993,0.0
3097,0.05095565106579859,0.0
3098,-0.01738323366500906,0.0
3099,-0.036148910200816634,0.0
3100,0.4027462981462986,0.0
3101,4.055864905817771,0.0
3102,6.728865899414582,0.0
3103,-1.1363040060827245,0.0
3104,-1.4140176337406962,0.0
3105,1.3832526864569679,0.0
3106,-0.7640035238532435,0.0
3107,0.23756847958502988,0.0
3108,-0.014904775915433082,0.0
3109,-0.06388927618703664,0.0
3110,-0.03757923612869143,0.0
3111,-0.04288814646418415,0.0
3112,-0.07363464457101657,0.0
3113,0.004692854344475694,0.0
3114,-0.04969763657163702,0.0
3115,-0.017816221957063796,0.0
3116,-0.11892319899516464,0.0
3117,-0.04923151319747069,0.0
3118,-0.07386764721016047,0.0
3119,-0.04295625658339603,0.0
3120,0.34163925667432266,0.0
3121,3.9306755571613468,0.0
3122,6.504931365658931,0.0
3123,-1.087788968476871,0.0
3124,-1.5112634930868545,0.0
3125,1.387345042174645,0.0
3126,-0.8455158164456398,0.0
3127,0.08747176616484126,0.0
3128,-0.08747885698605079,0.0
3129,-0.034328209133391144,0.0
3130,0.06161273835582463,0.0
3131,-0.059706195522614434,0.0
3132,-0.08262459944350332,0.0
3133,-0.08450814607532717,0.0
3134,-0.11903904770485649,0.0
3135,-0.130520896521334,0.0
3136,-0.011391921075601795,0.0
3137,-0.08137948926402247,0.0
3138,0.03038491238538297,0.0
3139,-0.06403127496650345,0.0
3140,0.355736202429692,0.0
3141,4.050140346291442,0.0
3142,6.533434219831546,0.0
3143,-1.156954224204597,0.0
3144,-1.4796124238395891,0.0
3145,1.4924922479237386,0.0
3146,-0.8072669301579487,0.0
3147,0.17401088417550384,0.0
3148,-0.1254288633441547,0.0
3149,0.01247733024509572,0.0
3150,-0.0022861873696721526,0.0
3151,0.01381914769313846,0.0
3152,0.004692385936511069,0.0
3153,0.007133520619804525,0.0
3154,0.03534614548187301,0.0
3155,-0.0035790086838437853,0.0
3156,0.026728636596572816,0.0
3157,-0.02446518278218316,0.0
3158,0.08854305433645801,0.0
3159,0.04692127976771241,0.0
3160,0.4420470479309413,0.0
3161,4.0681261751093345,0.0
3162,6.627717825704368,0.0
3163,-1.122437863206321,0.0
3164,-1.399733026034774,0.0
3165,1.5898885688886208,0.0
3166,-0.7376363930586254,0.0
3167,0.25705849603375786,0.0
3168,0.0222602781790145,0.0
3169,-0.02244142537700245,0.0
3170,0.0012327349947293745,0.0
3171,0.07106974967609472,0.0
3172,0.036160761229349594,0.0
3173,0.026890324846754094,0.0
3174,-0.03302793746299449,0.0
3175,0.07167093400185275,0.0
3176,0.06134975878899178,0.0
3177,-0.039164654164343324,0.0
3178,0.062032366647857815,0.0
3179,0.04480564198663916,0.0
3180,0.5161242243614395,0.0
3181,4.116321929727751,0.0
3182,6.683940840255455,0.0
3183,-1.0469202565132345,0.0
3184,-1.4139136834960513,0.0
3185,1.5058848530972255,0.0
3186,-0.701288662490726,0.0
3187,0.2377637061871643,0.0
3188,0.15165918248335428,0.0
3189,-0.04172277283691937,0.0
3190,0.10708821479426708,0.0
3191,0.09782202489321834,0.0
3192,0.013590758735444058,0.0
3193,0.02618905101429328,0.0
3194,-0.038343680645675976,0.0
3195,0.054849530421521644,0.0
3196,0.02197353018578878,0.0
3197,0.006544179810913216,0.0
3198,0.029248858514866714,0.0
3199,0.07020639687227016,0.0
3200,0.41923981492473006,0.0
3201,4.099286719703444,0.0
3202,6.629773364689054,0.0
3203,-1.0238081642807333,0.0
3204,-1.4324139975921075,0.0
3205,1.5062951930212218,0.0
3206,-0.7114945872651678,0.0
3207,0.3053663749675116,0.0
3208,0.007588560842876929,0.0
3209,0.08495453784928426,0.0
3210,0.12838908201454466,0.0
3211,0.12476264237732763,0.0
3212,0.10099752052171912,0.0
3213,0.09340046486323937,0.0
3214,0.13565568739131165,0.0
3215,0.09113557084447273,0.0
3216,0.12103599516137771,0.0
3217,0.20659413784013256,0.0
3218,0.07127359947376152,0.0
3219,0.07664645030185771,0.0
3220,0.46183654856118833,0.0
3221,4.111825782307602,0.0
3222,6.626922206885439,0.0
3223,-1.0101932475426791,0.0
3224,-1.313807050632897,0.0
3225,1.5108554078517462,0.0
3226,-0.6344574884859733,0.0
3227,0.2366933100396395,0.0
3228,0.029440723449434443,0.0
3229,0.05674637120605617,0.0
3230,0.14919559486671036,0.0
3231,0.19105227420859267,0.0
3232,0.21589360207527014,0.0
3233,0.2092502632038086,0.0
3234,0.05736687735239834,0.0
3235,0.0827879029434684,0.0
3236,0.12670935611114764,0.0
3237,0.0363381846324541,0.0
3238,0.14685955261790049,0.0
3239,0.06138244857663914,0.0
3240,0.4880063025383687,0.0
3241,4.215489402703723,0.0
3242,6.696698664010046,0.0
3243,-0.9974502425932193,0.0
3244,-1.3541170912910048,0.0
3245,1.4740295621422579,0.0
3246,-0.6161013666546846,0.0
3247,0.23784055862000214,0.0
3248,0.10298304692613691,0.0
3249,-0.007853359663107129,0.0
3250,0.05743688336404672,0.0
3251,0.07482965422650335,0.0
3252,0.01691937326397265,0.0
3253,0.1616398372541062,0.0
3254,0.1863321136828277,0.0
3255,0.05391699390089002,0.0
3256,0.09015507514911397,0.0
3257,0.17856258270552156,0.0
3258,0.12470975429538951,0.0
3259,0.12449014954986784,0.0
3260,0.4071928054777415,0.0
3261,4.152534444088614,0.0
3262,6.653474170457458,0.0
3263,-1.1030790071140286,0.0
3264,-1.3465499498603022,0.0
3265,1.48431383444361,0.0
3266,-0.6821664192509891,0.0
3267,0.2880503697464198,0.0
3268,0.08752554499385973,0.0
3269,-0.0101466232228489,0.0
3270,0.007541778860993886,0.0
3271,0.040962038848451954,0.0
3272,0.11233169345796142,0.0
3273,0.10480604854042018,0.0
3274,0.12732001999512305,0.0
3275,0.002332065137723646,0.0
3276,0.17767649168088873,0.0
3277,0.07227443952787649,0.0
3278,0.014385475836371814,0.0
3279,0.13811395983947186,0.0
3280,0.5174333961712658,0.0
3281,4.126180331354813,0.0
3282,6.695175995258045,0.0
3283,-1.070514734730929,0.0
3284,-1.349687422972743,0.0
3285,1.5037521072578215,0.0
3286,-0.6669872770251041,0.0
3287,0.26740543285222146,0.0
3288,0.07451452336723297,0.0
3289,0.00046030491601438753,0.0
3290,0.06352618691374959,0.0
3291,0.16884825510163384,0.0
3292,0.0710162341261465,0.0
3293,0.05172028281707325,0.0
3294,0.11293473728325341,0.0
3295,-0.06433205203461449,0.0
3296,0.13441230358518447,0.0
3297,0.02544606104801701,0.0
3298,0.04973427893102104,0.0
3299,0.04271076961388078,0.0
3300,0.46460711696198054,0.0
3301,4.301514850241003,0.0
3302,6.740257687437579,0.0
3303,-0.9903061242764413,0.0
3304,-1.3560108340920258,0.0
3305,1.492413766452171,0.0
3306,-0.7574095619362136,0.0
3307,0.27968314873257716,0.0
3308,0.03887253672115567,0.0
3309,-0.007039888138932138,0.0
3310,0.004922001459604142,0.0
3311,0.08387487383517223,0.0
3312,0.017203096049189952,0.0
3313,0.02346247956663965,0.0
3314,0.007955958756606665,0.0
3315,0.04089015313623927,0.0
3316,-0.02407584515318677,0.0
3317,-0.005248794788796869,0.0
3318,-0.02544513446671114,0.0
3319,0.04362298061921542,0.0
3320,0.4295087560726173,0.0
3321,4.161316211809335,0.0
3322,6.587757065861073,0.0
3323,-1.1426447453143171,0.0
3324,-1.3993160178749215,0.0
3325,1.4675135321920019,0.0
3326,-0.80616364331517,0.0
3327,0.29166368504886364,0.0
3328,0.009691961317118818,0.0
3329,0.023012670019996954,0.0
3330,0.057184893486599754,0.0
3331,0.002128674498671615,0.0
3332,0.09432296148743682,0.0
3333,0.02221791226866282,0.0
3334,0.01498093352586358,0.0
3335,0.036952398696720054,0.0
3336,0.07214600205589028,0.0
3337,0.0076782718976887016,0.0
3338,0.009856282497738992,0.0
3339,0.012786207387807858,0.0
3340,0.5697362941731028,0.0
3341,4.103430282024081,0.0
3342,6.595939675081708,0.0
3343,-1.1263921562419685,0.0
3344,-1.4322533833467879,0.0
3345,1.349920535737355,0.0
3346,-0.7422863269218729,0.0
3347,0.2737444464244669,0.0
3348,-0.029394258536739663,0.0
3349,0.015238577279815771,0.0
3350,0.099269040300824,0.0
3351,0.03987324874814485,0.0
3352,0.0938087009960703,0.0
3353,0.07876895805221076,0.0
3354,0.04211547394632367,0.0
3355,0.012532462546306135,0.0
3356,0.06763354482478343,0.0
3357,-0.010495521342315633,0.0
3358,-0.0071831989449026665,0.0
3359,0.025146417587727725,0.0
3360,0.4628849853458726,0.0
3361,4.147603517134942,0.0
3362,6.479604996066014,0.0
3363,-1.1768146362126004,0.0
3364,-1.3863018772343998,0.0
3365,1.39774845981223,0.0
3366,-0.8851078707822828,0.0
3367,0.18679359340573745,0.0
3368,-0.040146082975762935,0.0
3369,-0.016628348787330417,0.0
3370,0.05552672350622931,0.0
3371,0.05842827414299055,0.0
3372,0.023039790740324678,0.0
3373,0.06529162581095418,0.0
3374,-0.02754751887207016,0.0
3375,0.006467257585252642,0.0
3376,0.0350027713418163,0.0
3377,-0.03297589882107352,0.0
3378,-0.07652561648034209,0.0
3379,-0.022746878842430648,0.0
3380,0.3893057308992439,0.0
3381,4.029387488508111,0.0
3382,6.450373639145791,0.0
3383,-1.306765914506829,0.0
3384,-1.3185884559145369,0.0
3385,1.31103860645809,0.0
3386,-0.8535271896244436,0.0
3387,0.2749942928828662,0.0
3388,-0.004142797010909024,0.0
3389,-0.022648123051837103,0.0
3390,0.052152511982003935,0.0
3391,0.021499079298282306,0.0
3392,-0.008903952655972661,0.0
3393,0.0026528315948622094,0.0
3394,0.09113727985595595,0.0
3395,0.0365806836150988,0.0
3396,0.07882718062194813,0.0
3397,0.034051251838479325,0.0
3398,0.08858601054595314,0.0
3399,0.05222249679759701,0.0
3400,0.392603877771548,0.0
3401,4.1206272299671225,0.0
3402,6.570561625476213,0.0
3403,-1.150753956960654,0.0
3404,-1.3502664427104643,0.0
3405,1.5798312731142463,0.0
3406,-0.7546730703881178,0.0
3407,0.3121467098652071,0.0
3408,-0.009633926281314108,0.0
3409,0.0069817931359908,0.0
3410,0.0707112640628707,0.0
3411,0.014530748525740262,0.0
3412,0.06502099284510371,0.0
3413,0.0911170349111149,0.0
3414,0.0276270242543445,0.0
3415,-0.027230620830029157,0.0
3416,0.09463857375696899,0.0
3417,-0.00375399200087188,0.0
3418,0.05846856086252093,0.0
3419,0.004352552850806943,0.0
3420,0.33076599712381394,0.0
3421,4.082686267533465,0.0
3422,6.607015640087899,0.0
3423,-1.1929271515495345,0.0
3424,-1.384234538833826,0.0
3425,1.430688098279841,0.0
3426,-0.7421665805868267,0.0
3427,0.21336935591678347,0.0
3428,0.033346423003368736,0.0
3429,0.022719136176077667,0.0
3430,0.0043141674043862405,0.0
3431,-0.024291573580757148,0.0
3432,0.0841598093480029,0.0
3433,0.01751013116276841,0.0
3434,0.031270322829868615,0.0
3435,0.08351283405718789,0.0
3436,-0.008404468026118182,0.0
3437,0.04434124679369982,0.0
3438,-0.01247162047009727,0.0
3439,-0.003064622474818049,0.0
3440,0.5184919734279312,0.0
3441,4.054979687205624,0.0
3442,6.70293751447199,0.0
3443,-1.086983756636067,0.0
3444,-1.36869764096294,0.0
3445,1.3913197789067102,0.0
3446,-0.725030126388226,0.0
3447,0.25211174314542273,0.0
3448,0.04262410578669902,0.0
3449,-0.10714123544705005,0.0
3450,-0.015853759815087416,0.0
3451,-0.0028633936712375817,0.0
3452,-0.00109803799604568,0.0
3453,-0.016251455550550232,0.0
3454,-0.005559599049109346,0.0
3455,0.03576027014297059,0.0
3456,0.059605375072250485,0.0
3457,0.07610570818013417,0.0
3458,0.013989748241595218,0.0
3459,0.08697855810119824,0.0
3460,0.46510539748905005,0.0
3461,4.138150798830018,0.0
3462,6.5932622425349185,0.0
3463,-1.229652332863974,0.0
3464,-1.2878860012308275,0.0
3465,1.375272018523481,0.0
3466,-0.8586633345645993,0.0
3467,0.3191778775467118,0.0
3468,-0.07146427499984304,0.0
3469,-0.09753072741112735,0.0
3470,-0.008255572068611543,0.0
3471,0.03391216958511795,0.0
3472,0.05294036392474251,0.0
3473,-0.07144917468805094,0.0
3474,0.044541688303153984,0.0
3475,-0.06289986444767687,0.0
3476,-0.0045699715414281895,0.0
3477,0.019645071443726028,0.0
3478,0.05708739077575588,0.0
3479,-0.019699079922778792,0.0
3480,0.5146500632429069,0.0
3481,4.3108183835353255,0.0
3482,6.607813947837556,0.0
3483,-1.1095214967898819,0.0
3484,-1.3062372039947225,0.0
3485,1.5130225689882606,0.0
3486,-0.7569826420801586,0.0
3487,0.3112487807209176,0.0
3488,-0.04242129326190343,0.0
3489,-0.1235485259946952,0.0
3490,-0.058320635770211876,0.0
3491,0.0025564620673354946,0.0
3492,0.06358598786341557,0.0
3493,-0.047444171869746046,0.0
3494,-0.09889853746898823,0.0
3495,0.021711013174780337,0.0
3496,-0.016474747919504363,0.0
3497,-0.08971981149329325,0.0
3498,-0.020853380229461524,0.0
3499,0.08978954901181227,0.0
3500,0.49167552596493586,0.0
3501,4.086279733107578,0.0
3502,6.640899730954442,0.0
3503,-1.2047478110619294,0.0
3504,-1.3649764235651072,0.0
3505,1.4452476040158295,0.0
3506,-0.767552948864099,0.0
3507,0.352729001065452,0.0
3508,0.007554436169080237,0.0
3509,0.05212296194191712,0.0
3510,0.027390183963914166,0.0
3511,-0.1145126194518383,0.0
3512,-0.017032164753430275,0.0
3513,0.1101249392466094,0.0
3514,-0.02748721280840749,0.0
3515,0.10349937959830242,0.0
3516,0.057621663298007275,0.0
3517,0.060918973650448016,0.0
3518,0.02226852211418933,0.0
3519,0.040588263413031754,0.0
3520,0.530985448554379,0.0
3521,4.127863837573612,0.0
3522,6.529320923098475,0.0
3523,-1.1432965118514942,0.0
3524,-1.2784720318131668,0.0
3525,1.4205153207200067,0.0
3526,-0.8414153008088843,0.0
3527,0.24077110235476895,0.0
3528,0.019507194669133386,0.0
3529,0.008825199694978577,0.0
3530,0.07985437199785492,0.0
3531,0.039645330601131436,0.0
3532,0.07951692487541465,0.0
3533,0.06762763366268171,0.0
3534,0.037883060926381266,0.0
3535,0.14699754625809558,0.0
3536,0.0826556332213843,0.0
3537,0.0762239032055254,0.0
3538,0.10219471947470572,0.0
3539,0.07196821459591116,0.0
3540,0.5097911886411935,0.0
3541,4.271121638586024,0.0
3542,6.6132359308301965,0.0
3543,-1.012192530208482,0.0
3544,-1.2722625211210552,0.0
3545,1.419263628631818,0.0
3546,-0.6569948035335326,0.0
3547,0.34812726076827616,0.0
3548,-0.04116753088073048,0.0
3549,0.05431440122383256,0.0
3550,0.044928141474873146,0.0
3551,0.033628481998753804,0.0
3552,0.010106324669744142,0.0
3553,-0.054523726173600046,0.0
3554,0.010012626722849138,0.0
3555,-0.017671630485649736,0.0
3556,0.08823260556494425,0.0
3557,0.0826299784188327,0.0
3558,0.03448747478517976,0.0
3559,0.06013784607586715,0.0
3560,0.41756593908911865,0.0
3561,4.217320772408838,0.0
3562,6.647820251488319,0.0
3563,-1.213556832129766,0.0
3564,-1.3445272495190088,0.0
3565,1.4837588193496938,0.0
3566,-0.7048501012209446,0.0
3567,0.22001002309742407,0.0
3568,0.07004514127479793,0.0
3569,0.04085233806383372,0.0
3570,0.07779223531900827,0.0
3571,0.0038495612056764425,0.0
3572,0.04835333784372528,0.0
3573,0.0459127311775214,0.0
3574,-0.030611033741714158,0.0
3575,0.0509841641429691,0.0
3576,0.15078369008601256,0.0
3577,0.08480599361460642,0.0
3578,0.10116808106613429,0.0
3579,0.05699252770909908,0.0
3580,0.4144824970280404,0.0
3581,4.203438822189291,0.0
3582,6.55619959449824,0.0
3583,-1.2202548855846522,0.0
3584,-1.2975629538271367,0.0
3585,1.4264309202108896,0.0
3586,-0.7716962016131875,0.0
3587,0.3358399032834497,0.0
3588,0.05299978044041609,0.0
3589,-0.01743169372956256,0.0
3590,0.03804712749206202,0.0
3591,0.06365251872661509,0.0
3592,0.01769659708708455,0.0
3593,0.010040292231057991,0.0
3594,0.05403405596500267,0.0
3595,-0.007899952314548785,0.0
3596,0.010868730345958647,0.0
3597,-0.04541826878936417,0.0
3598,0.06494382304709093,0.0
3599,-0.05441483012244777,0.0
3600,0.43521785489085446,0.0
3601,4.2758565702080125,0.0
3602,6.585585600826107,0.0
3603,-1.1411066675114996,0.0
3604,-1.2964535247133888,0.0
3605,1.40883673366421,0.0
3606,-0.7951825777256152,0.0
3607,0.2777526173241836,0.0
3608,-0.07255047799219609,0.0
3609,0.05363596289995762,0.0
3610,0.08278996576281596,0.0
3611,-0.07533447663729623,0.0
3612,0.06028141304122828,0.0
3613,0.05236052659650661,0.0
3614,0.057584917087003334,0.0
3615,-0.01639198040102862,0.0
3616,0.0398883517475046,0.0
3617,-0.08963831933226891,0.0
3618,-0.07874054439932156,0.0
3619,0.02061979883630246,0.0
3620,0.40515620068160735,0.0
3621,4.1346213701543535,0.0
3622,6.5746826076622815,0.0
3623,-1.1625827326816551,0.0
3624,-1.303715279219988,0.0
3625,1.3988831044656953,0.0
3626,-0.7678738671900635,0.0
3627,0.3385353705828092,0.0
3628,0.012931212608044307,0.0
3629,-0.00015713154013349828,0.0
3630,0.05136723597392603,0.0
3631,-0.04954925977314996,0.0
3632,0.11728257137631937,0.0
3633,0.03127048806325411,0.0
3634,0.07869238757680856,0.0
3635,-0.05157310470561022,0.0
3636,0.026150238503576777,0.0
3637,0.10104777232509413,0.0
3638,0.09389665041477868,0.0
3639,0.05744877731975237,0.0
3640,0.5223268910340296,0.0
3641,4.178433813450374,0.0
3642,6.62369886154789,0.0
3643,-1.164400710372968,0.0
3644,-1.2716828049866469,0.0
3645,1.4829024503735335,0.0
3646,-0.7520692427885827,0.0
3647,0.26277004458942843,0.0
3648,0.06514570810330887,0.0
3649,-0.07165418380992523,0.0
3650,0.019302308721615737,0.0
3651,0.001043752595849358,0.0
3652,0.06203775498594699,0.0
3653,0.007851526020279657,0.0
3654,0.1624929844621838,0.0
3655,0.11620649340717018,0.0
3656,0.13540033716364283,0.0
3657,-0.003849731363685424,0.0
3658,0.09288966184412584,0.0
3659,0.08701779345690769,0.0
3660,0.47663989469737594,0.0
3661,4.261971927306936,0.0
3662,6.673813461538216,0.0
3663,-1.0987567104883473,0.0
3664,-1.208476581003943,0.0
3665,1.5794371562228515,0.0
3666,-0.7711656647548113,0.0
3667,0.25647316116957786,0.0
3668,0.08210832186136166,0.0
3669,0.10457905668118916,0.0
3670,0.011120493259592953,0.0
3671,0.005613699817843057,0.0
3672,0.0457810656194139,0.0
3673,0.024818350404768,0.0
3674,0.0773124006368596,0.0
3675,0.018049118636030308,0.0
3676,-0.00339523119056619,0.0
3677,0.010586039214336802,0.0
3678,-0.044774826553092145,0.0
3679,0.005023295554386409,0.0
3680,0.45317921575797065,0.0
3681,4.120577530585512,0.0
3682,6.5085157348422396,0.0
3683,-1.2470812762273389,0.0
3684,-1.3108478122809863,0.0
3685,1.4650406857896656,0.0
3686,-0.7677879849510945,0.0
3687,0.2729822637530676,0.0
3688,-0.01990796639678956,0.0
3689,0.03400552283016614,0.0
3690,0.1523724201249565,0.0
3691,0.09642449806600817,0.0
3692,0.04206335874579093,0.0
3693,0.15391848366704602,0.0
3694,0.0041508710903198215,0.0
3695,0.10019234093697907,0.0
3696,0.022966335199164366,0.0
3697,0.0160543453805431,0.0
3698,0.0195104121274044,0.0
3699,0.040753369295074796,0.0
3700,0.5247082413058742,0.0
3701,4.200837824594551,0.0
3702,6.54376626768377,0.0
3703,-1.245319951133074,0.0
3704,-1.274405262047138,0.0
3705,1.4165172992462631,0.0
3706,-0.762588927761105,0.0
3707,0.31558695099496825,0.0
3708,-0.026670585056579214,0.0
3709,-0.04883932467399982,0.0
3710,-0.00017684166582605104,0.0
3711,-0.014334822779612837,0.0
3712,0.027229058189545678,0.0
3713,0.04248733734258267,0.0
3714,-0.07461750366216868,0.0
3715,0.04897279247264762,0.0
3716,0.04197141435768818,0.0
3717,-0.04123940779895638,0.0
3718,-0.05686242771443487,0.0
3719,-0.0536224629764678,0.0
3720,0.5468318429684348,0.0
3721,4.227302256487567,0.0
3722,6.6149780583068285,0.0
3723,-1.2170157704724636,0.0
3724,-1.2245700590877782,0.0
3725,1.4162622095851072,0.0
3726,-0.7262715666866585,0.0
3727,0.2720248788998468,0.0
3728,-0.045099449542950656,0.0
3729,0.027007212058796835,0.0
3730,0.042878935034465826,0.0
3731,0.10247524405690284,0.0
3732,0.039920756299983075,0.0
3733,0.026466490998495608,0.0
3734,0.025575275816982598,0.0
3735,0.03055606058822164,0.0
3736,-0.005902034302120274,0.0
3737,-0.019556049297681215,0.0
3738,0.027688140673334555,0.0
3739,0.04803403963239273,0.0
3740,0.49899552201124814,0.0
3741,4.1720763993260235,0.0
3742,6.559938649707661,0.0
3743,-1.2459589959730215,0.0
3744,-1.301507475089355,0.0
3745,1.4626476127225243,0.0
3746,-0.8031796599873866,0.0
3747,0.23881069580262546,0.0
3748,0.07203088967136229,0.0
3749,-0.055242919832980894,0.0
3750,-0.018897645112328415,0.0
3751,0.024186776761588293,0.0
3752,0.14165086925679846,0.0
3753,0.012453978959822552,0.0
3754,0.11031465699151771,0.0
3755,0.02179895917634915,0.0
3756,0.03987051181496876,0.0
3757,0.07473267328043075,0.0
3758,0.19074687447692013,0.0
3759,0.10016238272620875,0.0
3760,0.45910328720197546,0.0
3761,4.3444337235933395,0.0
3762,6.6631979635008625,0.0
3763,-1.1521021172778079,0.0
3764,-1.173723724315798,0.0
3765,1.5177342667129043,0.0
3766,-0.5685113938612388,0.0
3767,0.32588353591136154,0.0
3768,0.16581045535279965,0.0
3769,0.12326116364038034,0.0
3770,0.011694285302897761,0.0
3771,0.01864661429735985,0.0
3772,0.01935177527721078,0.0
3773,-0.056659653791611427,0.0
3774,0.10635197048097669,0.0
3775,0.08747053235543323,0.0
3776,0.07901722751568062,0.0
3777,0.04773302099354915,0.0
3778,0.08698487029268215,0.0
3779,0.04031722216022569,0.0
3780,0.5105663540576234,0.0
3781,4.2915494868210295,0.0
3782,6.644892536576953,0.0
3783,-1.1965500552019523,0.0
3784,-1.3492516915503463,0.0
3785,1.3864155679463608,0.0
3786,-0.7976989929763968,0.0
3787,0.3338579715449874,0.0
3788,0.03453240447721794,0.0
3789,0.1254180991621076,0.0
3790,-0.003239857384967633,0.0
3791,-0.0038593150745384504,0.0
3792,0.013750192697947593,0.0
3793,0.015099362362925589,0.0
3794,0.0014357300650923409,0.0
3795,-0.021758746327726276,0.0
3796,0.08946382947470306,0.0
3797,0.10128853013738656,0.0
3798,0.07671026655026601,0.0
3799,-0.1277342494226345,0.0
3800,0.36679808431994887,0.0
3801,4.262383658819757,0.0
3802,6.550928430121879,0.0
3803,-1.261349679368177,0.0
3804,-1.290038792385303,0.0
3805,1.357830679646197,0.0
3806,-0.7639490310175808,0.0
3807,0.21958443567123523,0.0
3808,0.007478107447825722,0.0
3809,-0.045691604255630916,0.0
3810,-0.01967305653948244,0.0
3811,0.07806151486908365,0.0
3812,0.08284727062002938,0.0
3813,0.018989824658701297,0.0
3814,0.0779926802178741,0.0
3815,0.006520426930288738,0.0
3816,0.11126475956197632,0.0
3817,0.047075913405912724,0.0
3818,0.12391170149694107,0.0
3819,0.001732988365584484,0.0
3820,0.5759806585014084,0.0
3821,4.210321854903015,0.0
3822,6.5822254600378685,0.0
3823,-1.188955357361533,0.0
3824,-1.29963000883286,0.0
3825,1.3722084132250185,0.0
3826,-0.6628716135537832,0.0
3827,0.3099882299857948,0.0
3828,0.04016097959142059,0.0
3829,-0.009014285071488194,0.0
3830,0.06270686066226323,0.0
3831,0.02624520321042452,0.0
3832,0.011901015898280354,0.0
3833,0.07146819244259367,0.0
3834,-0.08655636245372543,0.0
3835,0.0734680537795661,0.0
3836,-0.03078542843913081,0.0
3837,0.14616694947558306,0.0
3838,0.10618533140874742,0.0
3839,0.08008688251577303,0.0
3840,0.470845899217569,0.0
3841,4.184286633390289,0.0
3842,6.538238059365997,0.0
3843,-1.208994807884371,0.0
3844,-1.2078291500814295,0.0
3845,1.4731757959382568,0.0
3846,-0.7318249901285575,0.0
3847,0.3296740516929555,0.0
3848,0.036725776892906646,0.0
3849,0.02114508380134594,0.0
3850,0.07822990811615312,0.0
3851,0.018983261494458607,0.0
3852,0.02053850112635906,0.0
3853,0.04546143173884619,0.0
3854,-0.012287811443719314,0.0
3855,0.059272780775197535,0.0
3856,0.07111612871941718,0.0
3857,-0.008818122098971003,0.0
3858,-0.016680381254719996,0.0
3859,0.07470564040445675,0.0
3860,0.49407323187861263,0.0
3861,4.278408525254264,0.0
3862,6.516309439232161,0.0
3863,-1.310093422962363,0.0
3864,-1.2059466511435843,0.0
3865,1.4431588439508105,0.0
3866,-0.8259349265882893,0.0
3867,0.2923678894101712,0.0
3868,0.06487166656985414,0.0
3869,0.048483215866770984,0.0
3870,-0.004556089091371451,0.0
3871,0.026454470441379833,0.0
3872,0.03005459594460378,0.0
3873,0.08195598490933453,0.0
3874,-0.05333583056128751,0.0
3875,0.07737405073507062,0.0
3876,0.03220059871700194,0.0
3877,0.0718370387517153,0.0
3878,0.022771829722116485,0.0
3879,0.03864187294812606,0.0
3880,0.4485243704591667,0.0
3881,4.339946397401912,0.0
3882,6.577516606917482,0.0
3883,-1.2965819907030531,0.0
3884,-1.3058417463180914,0.0
3885,1.3717499190221032,0.0
3886,-0.7514142644250178,0.0
3887,0.25245552530631066,0.0
3888,-0.02051206726320183,0.0
3889,-0.1180400356164147,0.0
3890,-0.09489000713580165,0.0
3891,0.011907920292636438,0.0
3892,0.03598633226879769,0.0
3893,-0.00490893772758063,0.0
3894,0.011885345885100547,0.0
3895,0.006906628112350678,0.0
3896,-0.10601323420214635,0.0
3897,0.032710012604698774,0.0
3898,0.09961352212827532,0.0
3899,0.0759966533168468,0.0
3900,0.48484546857145183,0.0
3901,4.148177128346455,0.0
3902,6.526403761449448,0.0
3903,-1.2473875252815338,0.0
3904,-1.259108444348325,0.0
3905,1.4208358614830081,0.0
3906,-0.747976445036033,0.0
3907,0.24391417377903477,0.0
3908,0.008684122568590236,0.0
3909,0.1301450620274061,0.0
3910,-0.0005056352223348701,0.0
3911,0.05386037524126602,0.0
3912,0.016612105738392734,0.0
3913,0.031233523591310673,0.0
3914,0.02555764724673822,0.0
3915,-0.013099735213234848,0.0
3916,0.005339225776702702,0.0
3917,0.03814227417063198,0.0
3918,0.04386914925540297,0.0
3919,0.04141580534657401,0.0
3920,0.4189872150939094,0.0
3921,4.227014788016438,0.0
3922,6.452466900998531,0.0
3923,-1.2663932965393756,0.0
3924,-1.1866610859068758,0.0
3925,1.452582786713641,0.0
3926,-0.7402411783878796,0.0
3927,0.187159478185018,0.0
3928,0.05281956560998309,0.0
3929,-0.0028280707407636434,0.0
3930,0.08761614971578915,0.0
3931,0.13177087061936515,0.0
3932,0.007797682544803668,0.0
3933,0.07533049243792775,0.0
3934,-0.03705849334905979,0.0
3935,-0.03890928224136485,0.0
3936,0.01681180082144168,0.0
3937,-0.11572517530095147,0.0
3938,-0.07388479509350585,0.0
3939,0.04584081088819343,0.0
3940,0.3873351244100831,0.0
3941,4.216422739106994,0.0
3942,6.524504547335752,0.0
3943,-1.218218149370838,0.0
3944,-1.1929444527185955,0.0
3945,1.3731487282571324,0.0
3946,-0.7972124997379936,0.0
3947,0.21668782724383367,0.0
3948,-0.02673254667369985,0.0
3949,0.003789483197451097,0.0
3950,0.024261417316630562,0.0
3951,0.15706784445439942,0.0
3952,-0.050298622312187305,0.0
3953,-0.026820071738929203,0.0
3954,0.01202621249004306,0.0
3955,0.018588179773301752,0.0
3956,0.004081411405356706,0.0
3957,-0.0033570872724703856,0.0
3958,0.006558314598510327,0.0
3959,0.05355153247717163,0.0
3960,0.41313245405266297,0.0
3961,4.238789856743372,0.0
3962,6.509590077672848,0.0
3963,-1.2742331159577527,0.0
3964,-1.259642319889343,0.0
3965,1.372541388794885,0.0
3966,-0.8654392713889468,0.0
3967,0.2440006197907444,0.0
3968,0.019963880860360418,0.0
3969,0.03746066970080139,0.0
3970,0.06428188282039916,0.0
3971,0.14759303348504796,0.0
3972,0.016754681304828472,0.0
3973,0.0785311148948063,0.0
3974,0.03937130410374952,0.0
3975,0.006707867528211689,0.0
3976,0.04267340888602529,0.0
3977,0.040279972113521495,0.0
3978,0.019917837951019673,0.0
3979,0.05336121532611074,0.0
3980,0.4260856018682228,0.0
3981,4.346731908758124,0.0
3982,6.512531267621534,0.0
3983,-1.3372467488456203,0.0
3984,-1.2017219149582772,0.0
3985,1.3619204056504366,0.0
3986,-0.8355183265809075,0.0
3987,0.19116555538983404,0.0
3988,0.07974450475070984,0.0
3989,0.03363089168110299,0.0
3990,-0.04702753117776115,0.0
3991,0.061899248992295555,0.0
3992,0.026723314881432886,0.0
3993,0.014676832614186439,0.0
3994,0.0026125555720610955,0.0
3995,0.055629337906878434,0.0
3996,-0.018423731673508137,0.0
3997,0.009777971747507413,0.0
3998,-0.007621317368044278,0.0
3999,0.12031904168605247,0.0
4000,0.4418234164853358,0.0
4001,4.240894783074279,0.0
4002,6.558080131691578,0.0
4003,-1.3402903538725126,0.0
4004,-1.3474710133434895,0.0
4005,1.2818428436361726,0.0
4006,-0.7191352192903077,0.0
4007,0.2288632302222114,0.0
4008,-0.08243193143328023,0.0
4009,-0.012125127358807546,0.0
4010,0.0012283418445609758,0.0
4011,-0.009982247404085792,0.0
4012,-0.022605603884241834,0.0
4013,0.011607188700098466,0.0
4014,-0.009169802167967984,0.0
4015,-0.07086819384894542,0.0
4016,0.023510028788264945,0.0
4017,0.0024339931717548453,0.0
4018,0.033198602472284844,0.0
4019,0.03340605987618095,0.0
4020,0.4382226939523042,0.0
4021,4.242252547282124,0.0
4022,6.617259035426786,0.0
4023,-1.333207908678807,0.0
4024,-1.204258315087219,0.0
4025,1.422969718726074,0.0
4026,-0.7173348840251494,0.0
4027,0.32755497351010215,0.0
4028,0.017368452616716233,0.0
4029,-0.00367102020355653,0.0
4030,0.031140488363141136,0.0
4031,0.048929591627858454,0.0
4032,0.11061217706897884,0.0
4033,0.020731453896045183,0.0
4034,0.004267794663406314,0.0
4035,0.02672998681339446,0.0
4036,0.04438098148928513,0.0
4037,0.06525751036117705,0.0
4038,0.06982950939590467,0.0
4039,-0.10769824896122263,0.0
4040,0.42852456110422465,0.0
4041,4.274150447440473,0.0
4042,6.600453292027554,0.0
4043,-1.2388374401333404,0.0
4044,-1.2331408934047623,0.0
4045,1.3992662735457853,0.0
4046,-0.6297861318942913,0.0
4047,0.2977110586958998,0.0
4048,0.07984463188249773,0.0
4049,0.0054455548305388235,0.0
4050,0.056399833742386024,0.0
4051,0.06789193148621125,0.0
4052,-0.045338982104335,0.0
4053,0.09618543638287988,0.0
4054,0.08647791934415561,0.0
4055,0.029784384097963724,0.0
4056,0.01614897132133787,0.0
4057,0.08935822544474095,0.0
4058,0.06695102801353298,0.0
4059,0.04778190653871931,0.0
4060,0.4486354696479309,0.0
4061,4.2571612748473555,0.0
4062,6.530674142731858,0.0
4063,-1.3218928448584122,0.0
4064,-1.2666814941401974,0.0
4065,1.3957634386872886,0.0
4066,-0.7799751481619804,0.0
4067,0.2712404837568057,0.0
4068,-0.02294194839170751,0.0
4069,0.026230367947949272,0.0
4070,0.022984494400117846,0.0
4071,0.03813996735880062,0.0
4072,0.057252368270273815,0.0
4073,0.008301957184574594,0.0
4074,0.10475083231862994,0.0
4075,0.06652563909680659,0.0
4076,-0.039270748991143994,0.0
4077,0.21309261897600765,0.0
4078,0.04360199148074534,0.0
4079,0.02137319529227484,0.0
4080,0.4660213895571773,0.0
4081,4.305984961893169,0.0
4082,6.557877824291301,0.0
4083,-1.2598452818112467,0.0
4084,-1.2454434249572668,0.0
4085,1.4249731909210355,0.0
4086,-0.7837220469872613,0.0
4087,0.28686420725046796,0.0
4088,-0.043996143561464675,0.0
4089,-0.10434848057158361,0.0
4090,0.08795177348728256,0.0
4091,-0.019110730805017174,0.0
4092,0.09521650079735153,0.0
4093,0.006967718154372053,0.0
4094,0.0032280860609950543,0.0
4095,0.02695622747729113,0.0
4096,0.11545108666492981,0.0
4097,-0.016227645447740316,0.0
4098,0.06134119598319121,0.0
4099,-0.004166076130060328,0.0
4100,0.4708948352544996,0.0
4101,4.234567924041687,0.0
4102,6.4534186091403205,0.0
4103,-1.3515273933294198,0.0
4104,-1.2327481651097216,0.0
4105,1.3999184699704852,0.0
4106,-0.7475204746464836,0.0
4107,0.2877342290553105,0.0
4108,0.037659997012526536,0.0
4109,0.03347908432901349,0.0
4110,0.08009553227849488,0.0
4111,0.054310575131941596,0.0
4112,0.10300088292908433,0.0
4113,-0.07098782038553848,0.0
4114,-0.028139739471114554,0.0
4115,0.09622489639336756,0.0
4116,-0.07573404869399308,0.0
4117,-0.04195450456819227,0.0
4118,-0.06210693698853057,0.0
4119,-0.058980423744009476,0.0
4120,0.35985111622044086,0.0
4121,4.245951724591281,0.0
4122,6.456126041718105,0.0
4123,-1.4634541607095413,0.0
4124,-1.2360706248504338,0.0
4125,1.2926278117191825,0.0
4126,-0.8568952392354421,0.0
4127,0.27413852426628904,0.0
4128,-0.008647209845621354,0.0
4129,-0.07018089414875216,0.0
4130,-0.00353909808222584,0.0
4131,-0.06270808008629132,0.0
4132,0.0008308218422482722,0.0
4133,0.08744309793015956,0.0
4134,0.011412577037220801,0.0
4135,-0.014373345931256188,0.0
4136,0.0038582655109771,0.0
4137,0.03306258565461858,0.0
4138,-0.10768566691253077,0.0
4139,-0.076402599848872,0.0
4140,0.4606966818141246,0.0
4141,4.307646874604618,0.0
4142,6.483974234676743,0.0
4143,-1.2675124539476386,0.0
4144,-1.1944802797887066,0.0
4145,1.339156114740688,0.0
4146,-0.7316323438726415,0.0
4147,0.2540303053050103,0.0
4148,-0.04904931558253246,0.0
4149,0.02843157483257385,0.0
4150,0.010391639878326892,0.0
