timestamp,value-0,is_anomaly
0,0.18288481945574567,0.0
1,3.4922890359420546,0.0
2,6.876351087561746,0.0
3,-0.2151395608393979,0.0
4,-1.9790093766646588,0.0
5,1.5232780545820368,0.0
6,-0.8019991264952154,0.0
7,0.22295859969677162,0.0
8,0.08995127949313048,0.0
9,-0.07090646460160352,0.0
10,0.06830321461751124,0.0
11,0.04328721677213058,0.0
12,0.03728200928984292,0.0
13,0.1088585833790241,0.0
14,-0.037438871634159945,0.0
15,-0.01669303200176696,0.0
16,0.0013246791337889535,0.0
17,-0.05454406127338386,0.0
18,-0.02351105100161489,0.0
19,-0.08103946266612089,0.0
20,0.2787907666331333,0.0
21,3.4330093164433273,0.0
22,6.781792751520081,0.0
23,-0.24747790931548985,0.0
24,-1.968537811945262,0.0
25,1.5415916596541157,0.0
26,-0.7377662020385329,0.0
27,0.12705497553905343,0.0
28,0.05371930569207472,0.0
29,-0.053239833969127695,0.0
30,0.104743402204539,0.0
31,0.030328794594562634,0.0
32,0.06945512568182631,0.0
33,0.013146428007708842,0.0
34,0.10877689629438941,0.0
35,0.03798381374157177,0.0
36,-0.11977510764770717,0.0
37,0.08952114252414282,0.0
38,0.04981568052541094,0.0
39,-0.010600550035961422,0.0
40,0.22106658659837222,0.0
41,3.5738880558971635,0.0
42,6.845446712319758,0.0
43,-0.3716850975670745,0.0
44,-2.005701759921225,0.0
45,1.5018756991886322,0.0
46,-0.6700735361984288,0.0
47,0.088872735489502,0.0
48,0.08655691331425232,0.0
49,-0.15845344705884407,0.0
50,0.03443108949742192,0.0
51,-0.05053932836999425,0.0
52,-0.0575873503609985,0.0
53,-0.009924656894384924,0.0
54,-0.037455731828560615,0.0
55,-0.10787158072680886,0.0
56,0.02655194225524188,0.0
57,-0.04817362388588169,0.0
58,-0.04603741972759243,0.0
59,-0.08771680161875356,0.0
60,0.23932113029242144,0.0
61,3.505703388743218,0.0
62,6.854694620579563,0.0
63,-0.42990917730019496,0.0
64,-1.9990092529572037,0.0
65,1.5757629490759326,0.0
66,-0.7806135143157791,0.0
67,0.04495572915231229,0.0
68,0.01235988705043093,0.0
69,-0.1444184954310357,0.0
70,-0.10518992933811638,0.0
71,-0.06240565143197129,0.0
72,-0.0217982144892529,0.0
73,-0.12137376367186456,0.0
74,-0.12331944166456515,0.0
75,0.041027161976951394,0.0
76,-0.04473251968203742,0.0
77,0.0035559715242712633,0.0
78,-0.027594532829830043,0.0
79,-0.11511843662090662,0.0
80,0.23387401607823266,0.0
81,3.3835767569017507,0.0
82,6.849265456112448,0.0
83,-0.2999358635470363,0.0
84,-1.9497035923261843,0.0
85,1.492729464088253,0.0
86,-0.7016418604674357,0.0
87,0.1257821357931574,0.0
88,-0.06691605462521888,0.0
89,-0.11542927968099137,0.0
90,0.019394111192787736,0.0
91,-0.0942350626412867,0.0
92,-0.05648845356397825,0.0
93,0.046795113719896766,0.0
94,0.025120651023320836,0.0
95,-0.050365847275817985,0.0
96,-0.06340750874426357,0.0
97,0.030960280480164165,0.0
98,-0.041790750275763136,0.0
99,-0.06405886838342964,0.0
100,0.21098756855206813,0.0
101,3.4882375459157444,0.0
102,6.864566687089882,0.0
103,-0.3490592472741596,0.0
104,-1.9765051583314595,0.0
105,1.3936205751547075,0.0
106,-0.8916955998762166,0.0
107,0.03881965005727644,0.0
108,-0.1477150607994636,0.0
109,-0.16857428824409448,0.0
110,-0.0643568875648057,0.0
111,-0.09431698694965843,0.0
112,-0.021310200192204642,0.0
113,-0.09070766630404367,0.0
114,-0.08495724413484183,0.0
115,-0.10123687921444424,0.0
116,0.002176211456835858,0.0
117,-0.026699476587141724,0.0
118,-0.006029536359974379,0.0
119,-0.018715375408801846,0.0
120,0.33544570429221826,0.0
121,3.553618204135465,0.0
122,6.735300832808851,0.0
123,-0.28439412434659345,0.0
124,-2.0092958216684145,0.0
125,1.541590666059638,0.0
126,-0.7415488002179542,0.0
127,0.04668720130960155,0.0
128,0.015067289917768654,0.0
129,-0.055989106974686995,0.0
130,-0.04679212670618495,0.0
131,-0.0487726405780331,0.0
132,-0.04957568276731787,0.0
133,-0.002853388641872852,0.0
134,-0.03339367452327048,0.0
135,-0.04422530269984164,0.0
136,-0.06542261454407985,0.0
137,-0.0336119158992422,0.0
138,0.026747866289169732,0.0
139,-0.036278263799326554,0.0
140,0.16927260574840577,0.0
141,3.4489904722456015,0.0
142,6.769137731269822,0.0
143,-0.3088132880471266,0.0
144,-1.9914908642467084,0.0
145,1.5302560264183724,0.0
146,-0.7599832304224282,0.0
147,0.10012880159852489,0.0
148,-0.03994617428796568,0.0
149,-0.16146855664739052,0.0
150,0.12305554542671614,0.0
151,0.024626031697933974,0.0
152,-0.09707046854294159,0.0
153,-0.05277445100490244,0.0
154,-0.01288700463324043,0.0
155,0.012495822534142833,0.0
156,0.11630095077246529,0.0
157,-0.0645018165193733,0.0
158,0.0328076380738223,0.0
159,0.04379188504402121,0.0
160,0.27692328818301987,0.0
161,3.516044599934833,0.0
162,6.819397713127059,0.0
163,-0.3431078471694433,0.0
164,-1.906143974846403,0.0
165,1.4839092660294677,0.0
166,-0.6926244275215181,0.0
167,0.059536052279413255,0.0
168,-0.1399703514533936,0.0
169,-0.1062963106456408,0.0
170,-0.025817676602358,0.0
171,0.009762028658117705,0.0
172,-0.09715643594616488,0.0
173,-0.01173218250342871,0.0
174,-0.04934291534435559,0.0
175,-0.10243617684359047,0.0
176,-0.0547639622941228,0.0
177,-0.020191037914765134,0.0
178,-0.02626330493918908,0.0
179,-0.004176957425287186,0.0
180,0.30209303329946635,0.0
181,3.552307176153425,0.0
182,6.844853021896382,0.0
183,-0.261161137213056,0.0
184,-1.9037486455283843,0.0
185,1.5465401880857226,0.0
186,-0.7024934040371318,0.0
187,0.1608317365707618,0.0
188,0.02242933144333145,0.0
189,-0.0726981032360821,0.0
190,-0.07494453652665238,0.0
191,-0.032522976002529055,0.0
192,-0.026482188218479058,0.0
193,0.014044236960211204,0.0
194,0.010575572000602149,0.0
195,-0.21073916460548586,0.0
196,-0.034667494796849524,0.0
197,0.036004289129892494,0.0
198,0.00821106757954997,0.0
199,-0.055106953400049785,0.0
200,0.20414547953658652,0.0
201,3.6570545529688143,0.0
202,6.816833707289671,0.0
203,-0.2990279821771408,0.0
204,-1.8740003265245548,0.0
205,1.535308289818056,0.0
206,-0.7644560896361151,0.0
207,0.10994583415451853,0.0
208,-0.013422557769427794,0.0
209,0.034504085631679976,0.0
210,0.003044919404262005,0.0
211,-0.09454367042565145,0.0
212,-0.0930799198485151,0.0
213,-0.011225447348496629,0.0
214,-0.0624776144779486,0.0
215,-0.019527554518942624,0.0
216,0.024815184817142986,0.0
217,-0.0938822625331257,0.0
218,0.009393999026976615,0.0
219,0.037382096780310875,0.0
220,0.20296457431778855,0.0
221,3.507318632698795,0.0
222,6.829828461767546,0.0
223,-0.247155525326546,0.0
224,-1.9298014531857879,0.0
225,1.557917734139306,0.0
226,-0.7402422218305594,0.0
227,0.14756229086111025,0.0
228,-0.022599291650267236,0.0
229,-0.01621296420039158,0.0
230,0.060872145663902685,0.0
231,0.05321875923790527,0.0
232,0.03877743026676484,0.0
233,-0.054977685848262625,0.0
234,0.033278768591399346,0.0
235,0.053095776548022944,0.0
236,-0.09667801933645723,0.0
237,0.017810138627919574,0.0
238,0.07293093093675682,0.0
239,-0.025810617825654476,0.0
240,0.30808940008597774,0.0
241,3.504634994892751,0.0
242,6.888505912942906,0.0
243,-0.3177429487703445,0.0
244,-1.9150791948129617,0.0
245,1.3894750660199624,0.0
246,-0.7440876691504013,0.0
247,0.17255988823325147,0.0
248,0.11085313237609266,0.0
249,-0.03966472703047734,0.0
250,0.05889747331553016,0.0
251,0.016002897302889927,0.0
252,0.10087191586150882,0.0
253,0.004582177831536409,0.0
254,-0.029046891310215643,0.0
255,-0.04214544039056524,0.0
256,0.055445258547406666,0.0
257,-0.00866792943280082,0.0
258,0.11672087801178095,0.0
259,0.08506913785436647,0.0
260,0.3037837101812096,0.0
261,3.588549738086898,0.0
262,6.938783220210811,0.0
263,-0.20854035623891676,0.0
264,-1.8675666141661051,0.0
265,1.5644107466313855,0.0
266,-0.6595312920539814,0.0
267,0.16272041202429513,0.0
268,0.0038452614133980545,0.0
269,-0.089798561286891,0.0
270,0.0992665364867691,0.0
271,-0.001035344686080894,0.0
272,-0.03092621295590861,0.0
273,0.006024630658220301,0.0
274,0.06606010566063454,0.0
275,0.06818176814615295,0.0
276,0.07080271828454497,0.0
277,0.030104796646579137,0.0
278,0.08418378510931063,0.0
279,-0.005292647557163889,0.0
280,0.366684322672333,0.0
281,3.623360447711002,0.0
282,6.846795722271399,0.0
283,-0.2528331814840829,0.0
284,-1.8231572787932622,0.0
285,1.6896934868145534,0.0
286,-0.6375584813136457,0.0
287,0.27165422005699097,0.0
288,0.22886118479045492,0.0
289,0.004610827178697097,0.0
290,0.1325702227361459,0.0
291,0.14996532285226621,0.0
292,0.1321996423216632,0.0
293,0.10015812923713611,0.0
294,0.17776943475556295,0.0
295,0.11780274154409888,0.0
296,0.05257775983464463,0.0
297,0.13630004237491392,0.0
298,0.132858690073685,0.0
299,0.07651638997122233,0.0
300,0.3672214674676766,0.0
301,3.7005279421508446,0.0
302,6.88586255075499,0.0
303,-0.3226582465380926,0.0
304,-1.9777461778622485,0.0
305,1.4456303910061772,0.0
306,-0.7286904350073594,0.0
307,0.06833793781544406,0.0
308,-0.04230882806174722,0.0
309,-0.04401879634039082,0.0
310,0.08114673628453617,0.0
311,0.08398733676343267,0.0
312,0.00764623943360937,0.0
313,-0.031504451890924226,0.0
314,0.15377466118613112,0.0
315,0.022847940117379742,0.0
316,0.038595391690714284,0.0
317,0.04211024057346295,0.0
318,0.05678261644545624,0.0
319,-0.018035238835234127,0.0
320,0.3492091955524623,0.0
321,3.603100916047925,0.0
322,6.9476737970453435,0.0
323,-0.19073179359598808,0.0
324,-1.8193882105881054,0.0
325,1.540999327072572,0.0
326,-0.567769893520765,0.0
327,0.25824925662675735,0.0
328,0.14476924985614673,0.0
329,-0.010892306515934282,0.0
330,0.12831827207740965,0.0
331,0.10684876205760474,0.0
332,0.0643192625983338,0.0
333,0.08010346872932725,0.0
334,0.07169381069324969,0.0
335,0.05088098846873882,0.0
336,-0.0058888954546272715,0.0
337,0.0761360041225109,0.0
338,0.12992726698182433,0.0
339,-0.04205515566080317,0.0
340,0.3488234258768888,0.0
341,3.5609632685617694,0.0
342,6.851886018621306,0.0
343,-0.25047779347648036,0.0
344,-1.812018013346579,0.0
345,1.5509591283682347,0.0
346,-0.6230391372989987,0.0
347,0.21528228548463313,0.0
348,0.19770687890004368,0.0
349,0.010635446592950123,0.0
350,0.1826554498369414,0.0
351,-0.03511928762271058,0.0
352,0.13433756189213916,0.0
353,0.053870165540549235,0.0
354,0.09250703222628717,0.0
355,0.05779182330388639,0.0
356,0.12322072498390105,0.0
357,-0.05741791360878609,0.0
358,0.08284344903722023,0.0
359,-0.006491293508727375,0.0
360,0.34705535257725767,0.0
361,3.657239873188446,0.0
362,6.9501069882300115,0.0
363,-0.27422186392631326,0.0
364,-1.793822865215658,0.0
365,1.584208585353885,0.0
366,-0.7621763407149548,0.0
367,0.17027168239483034,0.0
368,-0.010475916130225887,0.0
369,-0.026142875717710602,0.0
370,-0.004151429731942789,0.0
371,-0.08621705760403299,0.0
372,-0.013704388783551373,0.0
373,0.010453738149122219,0.0
374,0.05631351210742655,0.0
375,-0.027966767737610403,0.0
376,0.02762077682770294,0.0
377,-0.003547826795862878,0.0
378,-0.005364178258852084,0.0
379,0.0836708819258867,0.0
380,0.2997423422897919,0.0
381,3.651298470444618,0.0
382,6.8892699748766635,0.0
383,-0.2826739369794289,0.0
384,-1.8255245567118241,0.0
385,1.5628171437190312,0.0
386,-0.6345669822939094,0.0
387,0.09685482442607862,0.0
388,0.09913625692380604,0.0
389,-0.007644865864132447,0.0
390,0.1392936946866036,0.0
391,-0.05809961171102268,0.0
392,0.029517054559040804,0.0
393,-0.020986710947314528,0.0
394,0.05795911868383538,0.0
395,-0.005902545656796881,0.0
396,-0.01948877524060394,0.0
397,-0.009053625092568227,0.0
398,0.0659316612671019,0.0
399,-0.08490745041393583,0.0
400,0.2512839562774474,0.0
401,3.490566803219773,0.0
402,6.895055587304558,0.0
403,-0.3371092785768216,0.0
404,-1.932728839037491,0.0
405,1.5545422174980073,0.0
406,-0.7918852948934934,0.0
407,0.14293474686582672,0.0
408,0.10875230557248781,0.0
409,-1.981181018884115e-05,0.0
410,-0.005921998178640156,0.0
411,0.016125759198037083,0.0
412,0.03240764920912919,0.0
413,-0.07057185565059136,0.0
414,-0.019003931687705616,0.0
415,-0.021279044729908703,0.0
416,-0.04240090282711442,0.0
417,-0.008788653636535653,0.0
418,-0.021268995779141667,0.0
419,-0.01570215368213474,0.0
420,0.3132983638291001,0.0
421,3.5348516746938397,0.0
422,6.816514878347869,0.0
423,-0.333498957171035,0.0
424,-1.9340480907800843,0.0
425,1.5509384881492265,0.0
426,-0.7747680400801427,0.0
427,0.1900996865402815,0.0
428,0.018763051907176885,0.0
429,-0.04411604565649417,0.0
430,-0.018203922951581367,0.0
431,0.05792525701756033,0.0
432,0.037121382372770254,0.0
433,0.03424482252200034,0.0
434,0.042444105580193035,0.0
435,0.04684309859170753,0.0
436,0.056256565865862335,0.0
437,-0.0014049799958441717,0.0
438,0.05830396568697728,0.0
439,0.14710880909172153,0.0
440,0.31946362272330947,0.0
441,3.5509354166026923,0.0
442,6.950901374495581,0.0
443,-0.3108288359740839,0.0
444,-1.9494328232503175,0.0
445,1.5124775764105103,0.0
446,-0.714118241061322,0.0
447,0.09605250748739029,0.0
448,0.00698446659978086,0.0
449,-0.10215798654910517,0.0
450,-0.0556519062403476,0.0
451,-0.04809393442136711,0.0
452,0.013536686669820892,0.0
453,-0.06533222904599888,0.0
454,-0.02581835824357994,0.0
455,0.03485785466626702,0.0
456,-0.01841799963667046,0.0
457,0.04249283866750832,0.0
458,-0.0333431152350587,0.0
459,-0.035169003648444115,0.0
460,0.29148960294522097,0.0
461,3.617611733574169,0.0
462,7.0202744133293775,0.0
463,-0.3464449574708677,0.0
464,-1.9234216562687378,0.0
465,1.4215494214070077,0.0
466,-0.7804298513799619,0.0
467,0.13487876625038656,0.0
468,0.002972822555101104,0.0
469,-0.13008029592008696,0.0
470,0.015794711239126877,0.0
471,-0.10950283775659611,0.0
472,-0.11429996790554299,0.0
473,-0.01368118436501194,0.0
474,-0.14586977310702,0.0
475,-0.009063633217358051,0.0
476,0.004704945298309025,0.0
477,-0.020726183238484817,0.0
478,0.021512402332385598,0.0
479,0.053747578643303096,0.0
480,0.3339769168591545,0.0
481,3.6569402642617295,0.0
482,6.8334372828637555,0.0
483,-0.38629042469119806,0.0
484,-1.8778953677802328,0.0
485,1.5764618618128319,0.0
486,-0.7719417274258584,0.0
487,0.2369628398257086,0.0
488,0.03249395626830774,0.0
489,-0.04447745414893557,0.0
490,0.10607146607677087,0.0
491,0.06260639966406109,0.0
492,0.03673110479007749,0.0
493,0.046065598217322666,0.0
494,0.018638207595051342,0.0
495,-0.018312820969721845,0.0
496,0.01550770933724724,0.0
497,0.045358198614109835,0.0
498,0.02077234583030212,0.0
499,0.03247895768472794,0.0
500,0.3686931063248461,0.0
501,3.6166315101866924,0.0
502,6.893884101968035,0.0
503,-0.382598972107486,0.0
504,-1.8438289962715084,0.0
505,1.5875784364284793,0.0
506,-0.7272770651319195,0.0
507,0.24149767263448696,0.0
508,0.029198127523373613,0.0
509,-0.03318509317800791,0.0
510,0.18739864409960527,0.0
511,0.07455580566891148,0.0
512,0.045215325142095204,0.0
513,0.06522571376865571,0.0
514,-0.026735691207182832,0.0
515,-0.004560010169525348,0.0
516,-0.09724437029334074,0.0
517,-0.03896008102904089,0.0
518,-0.04251518947393383,0.0
519,-0.1528897369441456,0.0
520,0.29947488024391167,0.0
521,3.5701812152669667,0.0
522,6.910537738530073,0.0
523,-0.41963950427574204,0.0
524,-1.8364649248896012,0.0
525,1.4461568941836336,0.0
526,-0.7001951481164914,0.0
527,0.10205675348302104,0.0
528,-0.04545234526884792,0.0
529,-0.00758804218474033,0.0
530,0.017664617292754092,0.0
531,0.08903468979402658,0.0
532,0.0784506840587095,0.0
533,0.09185887252438284,0.0
534,0.07192970655325825,0.0
535,0.061583369082958674,0.0
536,0.031703668439407896,0.0
537,0.043832014581532366,0.0
538,-0.12115680260025996,0.0
539,-0.004651721891012456,0.0
540,0.1870379282292245,0.0
541,3.6204021285179318,0.0
542,6.809525048674023,0.0
543,-0.3711860964459824,0.0
544,-1.848455232806097,0.0
545,1.5676991599645227,0.0
546,-0.6320045591779507,0.0
547,0.24859991591334457,0.0
548,0.01745090256753308,0.0
549,0.04780084258974134,0.0
550,0.12341660819739596,0.0
551,0.143869011155812,0.0
552,0.10079513925473939,0.0
553,0.010527978491567953,0.0
554,0.0830229294828271,0.0
555,0.06931226889740083,0.0
556,0.08736556625427516,0.0
557,-0.0030875845648035,0.0
558,0.07273472236652911,0.0
559,0.02614122251015271,0.0
560,0.28789636999120705,0.0
561,3.55673545931587,0.0
562,6.92303116236147,0.0
563,-0.38475323820455354,0.0
564,-1.9195898234881092,0.0
565,1.5717699847855844,0.0
566,-0.7213811699892544,0.0
567,0.20065700737809777,0.0
568,0.06382859147884726,0.0
569,-0.02035750904437917,0.0
570,0.03658890655800992,0.0
571,0.016635244582541904,0.0
572,0.07698611753949058,0.0
573,0.0051289198295843864,0.0
574,0.019358626275780777,0.0
575,-0.0886819970529655,0.0
576,-0.040944080228992465,0.0
577,-0.021690667843714,0.0
578,0.048882791752375615,0.0
579,0.008740135920599025,0.0
580,0.35147729251202936,0.0
581,3.5847593766434533,0.0
582,6.839043505247946,0.0
583,-0.4146486058855697,0.0
584,-1.9283821810785073,0.0
585,1.4460709415113988,0.0
586,-0.7732071078650559,0.0
587,0.10901010020785273,0.0
588,-0.05269083196521694,0.0
589,-0.05292379333609725,0.0
590,-0.012809272530543946,0.0
591,0.07922452213239009,0.0
592,0.0012661230028827635,0.0
593,-0.005290505011836712,0.0
594,-0.05207927721413322,0.0
595,0.0502538138186054,0.0
596,0.10530162934459601,0.0
597,0.026565790916885223,0.0
598,0.02797930885724599,0.0
599,-0.05854661128470673,0.0
600,0.3155186155731958,0.0
601,3.6479949859758656,0.0
602,6.849717167756929,0.0
603,-0.3420306254920902,0.0
604,-1.892419798804354,0.0
605,1.5307032636526483,0.0
606,-0.7132576237857671,0.0
607,0.17617732905701405,0.0
608,0.05439550376679335,0.0
609,0.023062759516689346,0.0
610,9.288214580190773e-05,0.0
611,0.05427930129429132,0.0
612,0.027813404487570696,0.0
613,0.07053808572726564,0.0
614,0.06846614833729905,0.0
615,0.08170755478770761,0.0
616,0.14969995264004615,0.0
617,0.05006350610411387,0.0
618,0.04653195516516692,0.0
619,0.09687446764918863,0.0
620,0.3190330939758995,0.0
621,3.6956722853719848,0.0
622,6.962574880047024,0.0
623,-0.3734960010362214,0.0
624,-1.9006848915310028,0.0
625,1.5158176718917513,0.0
626,-0.6887907633664507,0.0
627,0.14994562727083244,0.0
628,-0.012496618464505022,0.0
629,-0.051764753737418394,0.0
630,-0.1767108977626399,0.0
631,-0.10304167732257544,0.0
632,-0.10696438032380569,0.0
633,-0.008793480665055614,0.0
634,-0.062031278033632356,0.0
635,-0.16039997331675626,0.0
636,-0.048021716683376944,0.0
637,-0.14692534051349743,0.0
638,0.02487760858135593,0.0
639,-0.03200986794506919,0.0
640,0.18629754762225828,0.0
641,3.5598977424852083,0.0
642,6.759718941423876,0.0
643,-0.49832891634617493,0.0
644,-1.987159600061289,0.0
645,1.5633698022281137,0.0
646,-0.8480697683530064,0.0
647,0.04205259680785978,0.0
648,-0.03604412836444017,0.0
649,-0.1206624088268279,0.0
650,-0.004243232154850795,0.0
651,0.012961459172074148,0.0
652,0.038626346985671925,0.0
653,-0.007670398942609694,0.0
654,-0.11979106615202324,0.0
655,-0.09360260735357648,0.0
656,-0.016977485924283216,0.0
657,-0.04884725259616292,0.0
658,0.03197581488313872,0.0
659,-0.009158972721601003,0.0
660,0.2671010792700298,0.0
661,3.6541542172342427,0.0
662,6.827277519799781,0.0
663,-0.4820261092410064,0.0
664,-1.92207963814164,0.0
665,1.5973674597291088,0.0
666,-0.7728392893053346,0.0
667,0.18959020573940716,0.0
668,0.04121900095736762,0.0
669,0.05472680949611128,0.0
670,-0.03531927459960418,0.0
671,0.099402474761876,0.0
672,-0.015957066717475193,0.0
673,-0.01191539262160761,0.0
674,-0.037996551667950705,0.0
675,0.03810309373373882,0.0
676,-0.05315020553775282,0.0
677,-0.06009320591329527,0.0
678,-0.01175238984205277,0.0
679,-0.07639439683270034,0.0
680,0.3341061749417796,0.0
681,3.62877319141537,0.0
682,6.823166467753667,0.0
683,-0.45352387274355055,0.0
684,-1.8904212321477112,0.0
685,1.530259795743084,0.0
686,-0.7992631697166838,0.0
687,0.1388435414592688,0.0
688,0.061148505481849365,0.0
689,-0.001441488037226657,0.0
690,-0.06607980532826208,0.0
691,-0.10179777070196269,0.0
692,0.021644815942477476,0.0
693,0.015803920672618873,0.0
694,-0.024870569577105386,0.0
695,0.00531255449370351,0.0
696,-0.1527651495554576,0.0
697,-0.006934841255521027,0.0
698,0.02849415131821037,0.0
699,-0.041552140373779384,0.0
700,0.24718354731445608,0.0
701,3.6739236412591136,0.0
702,6.809942536106506,0.0
703,-0.43259426718989313,0.0
704,-1.967527331069896,0.0
705,1.526974382192007,0.0
706,-0.7528566813888693,0.0
707,0.06970347151975406,0.0
708,-0.03840384090004897,0.0
709,-0.0495285357020192,0.0
710,-0.027688781877150338,0.0
711,-0.04672272019350906,0.0
712,-0.036509660154522214,0.0
713,-0.006531156029552197,0.0
714,-0.029454669571813814,0.0
715,-0.01512441531266482,0.0
716,-0.012237754445891723,0.0
717,0.004724578803459785,0.0
718,0.09349566880912755,0.0
719,0.08481171445816638,0.0
720,0.34575877444189096,0.0
721,3.6928945513318006,0.0
722,6.922610963300496,0.0
723,-0.4502526484899047,0.0
724,-1.880579848983032,0.0
725,1.5001619294616682,0.0
726,-0.7343273309996702,0.0
727,0.13818125951622506,0.0
728,0.023916882303756767,0.0
729,-0.11481112618768696,0.0
730,-0.07972523492250629,0.0
731,0.006580869034192888,0.0
732,-0.09203876099422745,0.0
733,-0.022121270250735056,0.0
734,-0.001209413523141925,0.0
735,-0.0014084488384718385,0.0
736,-0.04781377987674552,0.0
737,0.019513910710582935,0.0
738,0.01707613021371767,0.0
739,0.029388380277929095,0.0
740,0.33198564491302307,0.0
741,3.7190706650625978,0.0
742,6.861436662672831,0.0
743,-0.40801913378635335,0.0
744,-1.6723409361737471,0.0
745,1.6037560671410744,0.0
746,-0.6678654776002373,0.0
747,0.14686411396812432,0.0
748,0.10648950325776138,0.0
749,-0.028409186934472523,0.0
750,0.10967962216290061,0.0
751,0.06262399500123689,0.0
752,-0.0812631204524817,0.0
753,0.013147342674288036,0.0
754,0.021116707691911353,0.0
755,0.031278320143768315,0.0
756,0.03126122988058963,0.0
757,0.08110444420879322,0.0
758,-0.0247655468761649,0.0
759,0.011827587608341822,0.0
760,0.3094425953911668,0.0
761,3.6222696153203064,0.0
762,6.830293106954385,0.0
763,-0.47095900786153844,0.0
764,-1.824874658016747,0.0
765,1.563722037682157,0.0
766,-0.6900543662552979,0.0
767,0.17491612792788103,0.0
768,0.011953774710098765,0.0
769,-0.03608104853628901,0.0
770,0.03293332258431183,0.0
771,0.10349332247598428,0.0
772,0.07348489620388651,0.0
773,-0.011348726747274537,0.0
774,-0.06783809252107295,0.0
775,0.12102225667300541,0.0
776,0.1440649468885503,0.0
777,0.04179967975603961,0.0
778,0.03778177959450714,0.0
779,0.01709688142057358,0.0
780,0.2963977944915557,0.0
781,3.7075208291328576,0.0
782,6.842925210863907,0.0
783,-0.4272626170801143,0.0
784,-1.7566095421782701,0.0
785,1.6218139702853953,0.0
786,-0.6680852502693085,0.0
787,0.11682205682155669,0.0
788,0.06803947066158014,0.0
789,0.12297167476359888,0.0
790,0.07361715987433791,0.0
791,0.0027720815546444302,0.0
792,0.028324570193395973,0.0
793,0.041723792645867716,0.0
794,0.057784316797814705,0.0
795,0.13224253358484178,0.0
796,0.015409034910220838,0.0
797,0.1386656806208678,0.0
798,0.06576896568850224,0.0
799,0.07466724429496548,0.0
800,0.2825871544536548,0.0
801,3.7876215047186763,0.0
802,6.85139369461914,0.0
803,-0.3944893120485473,0.0
804,-1.8299432495250751,0.0
805,1.6216169311723805,0.0
806,-0.7491776488039148,0.0
807,0.22326844720288103,0.0
808,-0.0019487796467068108,0.0
809,-0.024686585419384066,0.0
810,0.043797763558203626,0.0
811,0.019325232674698187,0.0
812,0.07164258254136541,0.0
813,0.0961956438080962,0.0
814,0.04317569112340945,0.0
815,0.03570811979697714,0.0
816,0.05659578953493731,0.0
817,0.06295407223705607,0.0
818,0.11464290433009647,0.0
819,-0.010346355061594426,0.0
820,0.2861677070572002,0.0
821,3.6681899230857518,0.0
822,6.865070692944477,0.0
823,-0.38031942366712534,0.0
824,-1.7305106231165623,0.0
825,1.5419688072919429,0.0
826,-0.7732806789149237,0.0
827,0.12119764676000627,0.0
828,0.05430740595772636,0.0
829,-0.013422027523656179,0.0
830,0.0822835018341102,0.0
831,-0.01368130217737365,0.0
832,0.07786640076598211,0.0
833,0.007339925972470452,0.0
834,-0.06723379594212651,0.0
835,0.05079431311283094,0.0
836,0.055469508545523905,0.0
837,0.05007274778349573,0.0
838,0.050211508906623833,0.0
839,-0.061579043669058225,0.0
840,0.2680074422220309,0.0
841,3.6650584998332576,0.0
842,6.880065420289032,0.0
843,-0.451135411487047,0.0
844,-1.810439365114727,0.0
845,1.6138303403364491,0.0
846,-0.6357130674009872,0.0
847,0.18932460200241008,0.0
848,0.03787997087615112,0.0
849,-0.027277613962406154,0.0
850,0.012070700871027157,0.0
851,0.07734626466338905,0.0
852,-0.022947704105237055,0.0
853,0.057101020917069194,0.0
854,0.03639292781977424,0.0
855,0.060263676265571095,0.0
856,0.01970404204876816,0.0
857,-0.04679915950592956,0.0
858,0.016446796926409872,0.0
859,-0.0030367451248515323,0.0
860,0.4060562480158076,0.0
861,3.65056285443813,0.0
862,6.950117294137415,0.0
863,-0.38839236367226165,0.0
864,-1.7831130139824252,0.0
865,1.5845406909858037,0.0
866,-0.7455241587871013,0.0
867,0.2855244396234138,0.0
868,0.035213737272916185,0.0
869,-0.022278024109972053,0.0
870,0.012828550274598408,0.0
871,0.03128254069860058,0.0
872,0.02667829557339364,0.0
873,0.0385779991447753,0.0
874,0.11021914296685673,0.0
875,0.10020890109386581,0.0
876,-0.015301310168050449,0.0
877,-0.008099879687126367,0.0
878,0.0009087063763024402,0.0
879,0.10959988538834141,0.0
880,0.26465351860909325,0.0
881,3.655968347403488,0.0
882,6.846220520503033,0.0
883,-0.58345706965678,0.0
884,-1.8275261957366196,0.0
885,1.5719668992972922,0.0
886,-0.7548533305175829,0.0
887,0.18193245522688836,0.0
888,-0.006569990666589946,0.0
889,-0.03242483189635374,0.0
890,0.023991363747412692,0.0
891,0.0002723675368593234,0.0
892,-0.01746814417563267,0.0
893,-0.0051553908424481236,0.0
894,-0.10248672282090047,0.0
895,-0.01949647314654885,0.0
896,0.08634880503064088,0.0
897,-0.09839711491086679,0.0
898,-0.02515604190690801,0.0
899,-0.09734475690285416,0.0
900,0.25016437172304806,0.0
901,3.713540270009681,0.0
902,6.795168229705258,0.0
903,-0.5657402449695836,0.0
904,-1.8297465332780525,0.0
905,1.5171259379108413,0.0
906,-0.8302439028408252,0.0
907,0.12999939678511133,0.0
908,-0.09808353708734208,0.0
909,-0.0839988735509536,0.0
910,-0.13782575106394124,0.0
911,-0.07433751349526795,0.0
912,-0.07282461236126499,0.0
913,0.019993677370140912,0.0
914,0.07052609458674701,0.0
915,-0.10311738287590462,0.0
916,-0.027532530920973748,0.0
917,0.033190373914456416,0.0
918,-0.0398779742753034,0.0
919,-0.005487940426231654,0.0
920,0.3201871826440699,0.0
921,3.665755456809591,0.0
922,6.877374556818562,0.0
923,-0.5314640501358279,0.0
924,-1.8316588196317258,0.0
925,1.5963023668751555,0.0
926,-0.8266661882245312,0.0
927,0.20429966545746323,0.0
928,-0.04947129973518158,0.0
929,-0.08323113557214508,0.0
930,-0.0849112981586504,0.0
931,-0.04619468052600554,0.0
932,-0.08186330089261756,0.0
933,-0.1138821367722238,0.0
934,-0.0652737872389191,0.0
935,-0.03699267932388543,0.0
936,0.002459418272642455,0.0
937,-0.0766092816763438,0.0
938,-0.10332227408594542,0.0
939,-0.0041307011903615395,0.0
940,0.16782603163579984,0.0
941,3.5674659520265055,0.0
942,6.827996215002093,0.0
943,-0.5727733376911804,0.0
944,-1.7811121948297384,0.0
945,1.481101325549001,0.0
946,-0.7662894217739818,0.0
947,0.09350746114633318,0.0
948,-0.04452607443845194,0.0
949,-0.14384356944276233,0.0
950,-0.0777892993514835,0.0
951,0.0390263999561873,0.0
952,-0.05438014732913997,0.0
953,0.04135198021661224,0.0
954,-0.013068989233697712,0.0
955,0.03088744425346108,0.0
956,-0.08190197212392628,0.0
957,0.013678705293800063,0.0
958,0.01667204565642777,0.0
959,-0.03552200633285412,0.0
960,0.17858414171333226,0.0
961,3.658680803156867,0.0
962,6.825156968582026,0.0
963,-0.5158875296764089,0.0
964,-1.7660594636996232,0.0
965,1.5971757019820723,0.0
966,-0.7314006209784754,0.0
967,0.14802587311727175,0.0
968,0.07158329547132432,0.0
969,-0.08288313053201521,0.0
970,0.011745041475311885,0.0
971,0.00418032470922975,0.0
972,-0.03141590355481095,0.0
973,-0.10815624852673515,0.0
974,0.005463650432175245,0.0
975,0.031724816514303346,0.0
976,0.004105977857664145,0.0
977,0.005004505985227076,0.0
978,0.001259607198391197,0.0
979,0.06703717985426333,0.0
980,0.33255098466546523,0.0
981,3.5906363818135487,0.0
982,6.779445666604865,0.0
983,-0.514865860996373,0.0
984,-1.8000452523743349,0.0
985,1.4465939483663417,0.0
986,-0.7863692717846267,0.0
987,0.12372991555824846,0.0
988,-0.019967327495644283,0.0
989,-0.04122099601330139,0.0
990,0.11519469739446289,0.0
991,0.005390067812450753,0.0
992,-0.07000130519105444,0.0
993,0.054644503882245204,0.0
994,0.11398607924387741,0.0
995,-0.016676111061373913,0.0
996,0.012316948289076136,0.0
997,0.047732844187221346,0.0
998,-0.04625280703772992,0.0
999,0.1043527629221102,0.0
1000,0.3175946222410342,0.0
1001,3.663392476253101,0.0
1002,6.814732381487903,0.0
1003,-0.5205416306421636,0.0
1004,-1.8542141408032664,0.0
1005,1.4909509514950134,0.0
1006,-0.880186132429765,0.0
1007,0.08382944957395745,0.0
1008,-0.025462019433883553,0.0
1009,-0.16935746394153606,0.0
1010,-0.09410807047934854,0.0
1011,-0.014422826041643348,0.0
1012,-0.07333082066347925,0.0
1013,-0.13841935445665104,0.0
1014,-0.030398944231950956,0.0
1015,-0.009308636198369045,0.0
1016,0.01519662053485568,0.0
1017,0.09696789589002607,0.0
1018,-0.018002774689684062,0.0
1019,-0.06196465182536785,0.0
1020,0.34482631567000294,0.0
1021,3.7560689467153123,0.0
1022,6.8885418324974275,0.0
1023,-0.4536177442106652,0.0
1024,-1.7551141485453199,0.0
1025,1.5906240548331612,0.0
1026,-0.6415459588426388,0.0
1027,0.1697416159943718,0.0
1028,0.03648072642023031,0.0
1029,0.054041707952919474,0.0
1030,-0.007783292270422952,0.0
1031,0.07516443230872843,0.0
1032,0.06797522403728408,0.0
1033,0.026512446382905404,0.0
1034,0.008813296224304648,0.0
1035,-0.05739049358518867,0.0
1036,0.05166262631068577,0.0
1037,0.0488955223365089,0.0
1038,-0.008891592385530799,0.0
1039,0.04011706657991071,0.0
1040,0.2658144102873129,0.0
1041,3.720177921088784,0.0
1042,6.906999376080918,0.0
1043,-0.5005295228672336,0.0
1044,-1.7501025123441467,0.0
1045,1.5760192934820594,0.0
1046,-0.6123061616210543,0.0
1047,0.2308532111953685,0.0
1048,0.143713581372256,0.0
1049,0.049245659673922165,0.0
1050,0.07414749467557288,0.0
1051,0.08886253962833712,0.0
1052,0.043712374638732385,0.0
1053,-0.007839293787598102,0.0
1054,0.01019716801791714,0.0
1055,0.021301820646741035,0.0
1056,-0.023417863174521245,0.0
1057,-0.03173330214454102,0.0
1058,0.0557872287312743,0.0
1059,-0.003660054370826872,0.0
1060,0.29682004517822386,0.0
1061,3.7605902451225,0.0
1062,6.750740769419757,0.0
1063,-0.5719788389037037,0.0
1064,-1.8464666566260226,0.0
1065,1.5537997534982215,0.0
1066,-0.7317298117152514,0.0
1067,0.15039817724129884,0.0
1068,-0.00384504918355541,0.0
1069,-0.02659834822254408,0.0
1070,0.008348733997626985,0.0
1071,-0.029752176369487925,0.0
1072,0.05130414753121153,0.0
1073,0.05331804607354933,0.0
1074,-0.030537441748872046,0.0
1075,0.08257133066744554,0.0
1076,0.08993434468968017,0.0
1077,0.05421129929649393,0.0
1078,0.0617751720547739,0.0
1079,0.008679182184451871,0.0
1080,0.3129633331402749,0.0
1081,3.7030388465203394,0.0
1082,6.830242801077655,0.0
1083,-0.5419180316703653,0.0
1084,-1.760280990189536,0.0
1085,1.5641383646401197,0.0
1086,-0.7095404617383596,0.0
1087,0.14580979022356008,0.0
1088,0.011569719813619072,0.0
1089,-0.003406214065882547,0.0
1090,0.03944817996866932,0.0
1091,-0.025669518395038456,0.0
1092,0.02585122442913894,0.0
1093,0.009182556246229705,0.0
1094,0.019139729166241383,0.0
1095,0.03031237936878504,0.0
1096,0.09563433171061363,0.0
1097,0.002098609296408446,0.0
1098,0.08829582240088274,0.0
1099,0.009590566910140055,0.0
1100,0.22736938343224788,0.0
1101,3.7143673095468124,0.0
1102,6.810462616209816,0.0
1103,-0.5969425014540535,0.0
1104,-1.8422946884960631,0.0
1105,1.506264633580163,0.0
1106,-0.7766548256612155,0.0
1107,0.15323769329775236,0.0
1108,-0.02261269862537161,0.0
1109,0.07344072691965833,0.0
1110,-0.01978556016930036,0.0
1111,-0.016350187464368813,0.0
1112,-0.13112653957685688,0.0
1113,0.041735356976128166,0.0
1114,0.04628331257298737,0.0
1115,-0.005169729285800577,0.0
1116,0.04002438888415283,0.0
1117,0.017672350528530396,0.0
1118,0.03977213148953293,0.0
1119,-0.028716128377077335,0.0
1120,0.3506562166427395,0.0
1121,3.6718772909566098,0.0
1122,6.802027418633608,0.0
1123,-0.5924774348855405,0.0
1124,-1.7146982279864544,0.0
1125,1.5127638831982413,0.0
1126,-0.7935795117194947,0.0
1127,0.20509529587651318,0.0
1128,-0.023187512195400245,0.0
1129,-0.038248793717940016,0.0
1130,0.016560334097725567,0.0
1131,-0.003375443800065256,0.0
1132,0.00698907194850424,0.0
1133,-0.025060073984962492,0.0
1134,-0.10217989324124113,0.0
1135,-0.03775561696439516,0.0
1136,-0.041069443045413226,0.0
1137,-0.015725023918490025,0.0
1138,0.00844622863047071,0.0
1139,0.04387880726316849,0.0
1140,0.3559923484069873,0.0
1141,3.6422681171993894,0.0
1142,6.7715690781481594,0.0
1143,-0.5906119267142521,0.0
1144,-1.822323290530788,0.0
1145,1.5604643913904703,0.0
1146,-0.8780251138339419,0.0
1147,0.06348641629307569,0.0
1148,0.009249415452852634,0.0
1149,-0.12390997021211597,0.0
1150,-0.08996456141979396,0.0
1151,-0.05601573145667547,0.0
1152,0.026117569640032798,0.0
1153,0.0019231258387944344,0.0
1154,-0.11804734851786305,0.0
1155,0.0011251028961509202,0.0
1156,-0.01120902152502027,0.0
1157,-0.07888364287781785,0.0
1158,-0.035053393370189236,0.0
1159,-0.07198413593230356,0.0
1160,0.3023886729550606,0.0
1161,3.6133499777785145,0.0
1162,6.695061200767616,0.0
1163,-0.6318994674187993,0.0
1164,-1.825249749312593,0.0
1165,1.4716520697966473,0.0
1166,-0.7626686783061696,0.0
1167,0.23281054888190933,0.0
1168,0.06400942839366797,0.0
1169,-0.0856968452562882,0.0
1170,0.08662174707811347,0.0
1171,-0.005006827998423717,0.0
1172,0.049698413266739565,0.0
1173,-0.07995839803083282,0.0
1174,-0.056206903494263494,0.0
1175,-0.08233934523787825,0.0
1176,-0.07239067052129697,0.0
1177,-0.09465601569488429,0.0
1178,-0.13941986590550004,0.0
1179,-0.12168348064904097,0.0
1180,0.1558624372202665,0.0
1181,3.5139985471252855,0.0
1182,6.507139198159937,0.0
1183,-0.7775316521830572,0.0
1184,-1.876752119800913,0.0
1185,1.3434623044797351,0.0
1186,-0.9590263162169275,0.0
1187,0.02147498948379903,0.0
1188,-0.05620642626510243,0.0
1189,-0.13711185644523738,0.0
1190,-0.10899638034572248,0.0
1191,-0.1182821283645566,0.0
1192,-0.10469945759989031,0.0
1193,-0.02514002318321696,0.0
1194,-0.05210522809416712,0.0
1195,-0.08359162567955182,0.0
1196,-0.023026489229557086,0.0
1197,-0.04541613383393429,0.0
1198,-0.13398608094359862,0.0
1199,-0.04383275549424239,0.0
1200,0.18356211862707905,0.0
1201,3.6297404496425063,0.0
1202,6.743471282404559,0.0
1203,-0.6446401844909778,0.0
1204,-1.8665077391869154,0.0
1205,1.4352738965385425,0.0
1206,-0.8151693625987243,0.0
1207,0.10329509783778888,0.0
1208,-0.022049062188881367,0.0
1209,-0.0495253684894435,0.0
1210,0.05115927989542612,0.0
1211,-0.08652134082196938,0.0
1212,-0.07254322157900187,0.0
1213,0.03498816561957089,0.0
1214,-0.05891115226621085,0.0
1215,-0.010607677288833295,0.0
1216,-0.006305271265729155,0.0
1217,-0.16037186342523282,0.0
1218,-0.050577352178091485,0.0
1219,-0.015568719562826627,0.0
1220,0.37331218452718246,0.0
1221,3.6652817817822196,0.0
1222,6.720386191177488,0.0
1223,-0.637038457633618,0.0
1224,-1.7966257878711602,0.0
1225,1.4354631320939046,0.0
1226,-0.8029810409106887,0.0
1227,0.14756722901318026,0.0
1228,-0.07692675160558105,0.0
1229,-0.11749514788602279,0.0
1230,-0.022205373716715958,0.0
1231,-0.08975177859691552,0.0
1232,-0.0044030094032806374,0.0
1233,0.015552471197054496,0.0
1234,-0.05113012518751614,0.0
1235,-0.04631364828838443,0.0
1236,-0.11329149659885865,0.0
1237,-0.00991615733797438,0.0
1238,-0.12487252748421883,0.0
1239,0.02187268808233419,0.0
1240,0.22384448511416044,0.0
1241,3.7092016129058503,0.0
1242,6.808926261894118,0.0
1243,-0.5738035445293976,0.0
1244,-1.748937852949358,0.0
1245,1.5640605379916366,0.0
1246,-0.8468917157241136,0.0
1247,0.18088902965677195,0.0
1248,0.025368035179731623,0.0
1249,-0.12411037352760915,0.0
1250,0.016302282317647028,0.0
1251,-0.08233030384215922,0.0
1252,-0.03331057223724851,0.0
1253,-0.028136453594860233,0.0
1254,-0.014717538004248062,0.0
1255,-0.0016862494914504714,0.0
1256,-0.036330098762884004,0.0
1257,-0.07888628046576607,0.0
1258,-0.019939929267274687,0.0
1259,-0.02266804890604121,0.0
1260,0.264049744978597,0.0
1261,3.6690320963449388,0.0
1262,6.795575440684776,0.0
1263,-0.5523035416832858,0.0
1264,-1.846223504494124,0.0
1265,1.5315510784276172,0.0
1266,-0.8842272402572486,0.0
1267,0.1871259801171588,0.0
1268,0.015826167883470646,0.0
1269,-0.0017097068284222111,0.0
1270,-0.02530232721444005,0.0
1271,-0.01727938400286811,0.0
1272,0.03253021035520586,0.0
1273,-0.05221368494062801,0.0
1274,-0.06610860619830987,0.0
1275,-0.03962561347693605,0.0
1276,-0.05572162640757611,0.0
1277,-0.042267173394742785,0.0
1278,-0.020504656501895965,0.0
1279,-0.08866357650357433,0.0
1280,0.22027231620804558,0.0
1281,3.6825262285720557,0.0
1282,6.777059921522588,0.0
1283,-0.6767858121243493,0.0
1284,-1.8754302658221238,0.0
1285,1.459445928512082,0.0
1286,-0.8441496013746133,0.0
1287,0.15124778479888337,0.0
1288,-0.0840317224089103,0.0
1289,-0.04542072741145775,0.0
1290,0.0343585585026784,0.0
1291,-0.012317367485913468,0.0
1292,0.018170007825457836,0.0
1293,-0.033240255743602565,0.0
1294,0.016196226194428773,0.0
1295,0.014032686074525515,0.0
1296,0.013143393078020817,0.0
1297,0.03177362855703397,0.0
1298,0.02845976297049084,0.0
1299,0.107311401844425,0.0
1300,0.21456161804165835,0.0
1301,3.65546523230969,0.0
1302,6.926096587568121,0.0
1303,-0.6295317258326817,0.0
1304,-1.7847854106745864,0.0
1305,1.5474858449063078,0.0
1306,-0.75319599370489,0.0
1307,0.2026966164882926,0.0
1308,0.05423074156633553,0.0
1309,-0.007656583532072454,0.0
1310,0.1359615253927548,0.0
1311,0.0033486792934078954,0.0
1312,0.07040029475253964,0.0
1313,0.03158245579645007,0.0
1314,0.00150072428738369,0.0
1315,-0.009056900841556238,0.0
1316,-0.06493506765847798,0.0
1317,-0.019253866422303763,0.0
1318,-0.0018566173477401401,0.0
1319,-0.11037214072408139,0.0
1320,0.3085443169772315,0.0
1321,3.681329693327666,0.0
1322,6.834524814827969,0.0
1323,-0.6467119051851113,0.0
1324,-1.8133807333648084,0.0
1325,1.48411470975625,0.0
1326,-0.8935870667548972,0.0
1327,0.16603659744993374,0.0
1328,-0.024073993102331867,0.0
1329,-0.05556958815615518,0.0
1330,-0.006368877779089267,0.0
1331,-0.020865503425391885,0.0
1332,0.05820816163125697,0.0
1333,-0.016842418750294772,0.0
1334,0.016047679055931626,0.0
1335,0.10132703237221921,0.0
1336,0.044738846189642446,0.0
1337,0.07272888140667695,0.0
1338,0.006872400898058524,0.0
1339,0.030777292135085142,0.0
1340,0.4497375612329626,0.0
1341,3.848134531044418,0.0
1342,6.779193646164643,0.0
1343,-0.6243640993099819,0.0
1344,-1.698414891981563,0.0
1345,1.5202941921511397,0.0
1346,-0.6233925469749089,0.0
1347,0.20170463881057357,0.0
1348,0.11729296572623041,0.0
1349,-0.022113055318764466,0.0
1350,0.0164431648408292,0.0
1351,0.039795500333190445,0.0
1352,0.025088505822755694,0.0
1353,-0.03895458445339609,0.0
1354,0.03753371940062468,0.0
1355,0.04761886542507966,0.0
1356,0.016711037802717717,0.0
1357,0.06431007055796237,0.0
1358,-0.013966407015374997,0.0
1359,0.055630962240995334,0.0
1360,0.35983304795064824,0.0
1361,3.7551577704227306,0.0
1362,6.733070120317962,0.0
1363,-0.6206890435680631,0.0
1364,-1.7923223061598372,0.0
1365,1.5657158314797202,0.0
1366,-0.7784526009483006,0.0
1367,0.2639513067883047,0.0
1368,-0.013678361826008109,0.0
1369,-0.01177144472745258,0.0
1370,0.09302323385764585,0.0
1371,-0.031629848425423865,0.0
1372,0.04538639154931089,0.0
1373,0.07358616300372912,0.0
1374,0.009480057723112077,0.0
1375,0.039786040110691034,0.0
1376,-0.034158479366082566,0.0
1377,0.12088160431829659,0.0
1378,0.03246738071547267,0.0
1379,0.17318762797091175,0.0
1380,0.45383789802496766,0.0
1381,3.7952054520102267,0.0
1382,6.821833445076929,0.0
1383,-0.5490536111724263,0.0
1384,-1.6496078537257457,0.0
1385,1.4825816049750293,0.0
1386,-0.6788308838908135,0.0
1387,0.14414277615645335,0.0
1388,-0.010160912585936606,0.0
1389,-0.07556472568163562,0.0
1390,0.06709269787839653,0.0
1391,-0.0011576844111015573,0.0
1392,-0.00766893993027881,0.0
1393,0.04864702069980207,0.0
1394,0.038829213453681635,0.0
1395,-0.0779678864247712,0.0
1396,0.04307742360149458,0.0
1397,0.05784704227645792,0.0
1398,0.028222153939859343,0.0
1399,0.06456902992829877,0.0
1400,0.3325077269145583,0.0
1401,3.8427457164718404,0.0
1402,6.778455249186921,0.0
1403,-0.6453170485951356,0.0
1404,-1.814706198983588,0.0
1405,1.450159851578651,0.0
1406,-0.8871892162279241,0.0
1407,0.04241284123537441,0.0
1408,-0.10572084627946084,0.0
1409,-0.1300177252188509,0.0
1410,-0.04986004079763061,0.0
1411,-0.1678568912801085,0.0
1412,-0.1729561795753323,0.0
1413,-0.19549496916573056,0.0
1414,-0.08925654210978004,0.0
1415,-0.12254064498550638,0.0
1416,-0.09521011139500235,0.0
1417,-0.07732704644992516,0.0
1418,-0.0029628119569181585,0.0
1419,-0.006721259991497622,0.0
1420,0.29826264004707503,0.0
1421,3.7040972268656414,0.0
1422,6.852094128092241,0.0
1423,-0.5714604228152215,0.0
1424,-1.6436205923067349,0.0
1425,1.5713752062747326,0.0
1426,-0.727831237047456,0.0
1427,0.16189797502174796,0.0
1428,0.0018510785702340361,0.0
1429,-0.06838810909393703,0.0
1430,0.0013217215570879319,0.0
1431,0.005240050916061004,0.0
1432,0.032003692052183175,0.0
1433,0.008624724250722905,0.0
1434,-0.08549656056038676,0.0
1435,-0.057622290071138005,0.0
1436,-0.06049037964390941,0.0
1437,-0.0032240833780328333,0.0
1438,0.06089347066876151,0.0
1439,-0.08749867073265946,0.0
1440,0.26984443961821175,0.0
1441,3.713358026015969,0.0
1442,6.874870525978285,0.0
1443,-0.7118499885236451,0.0
1444,-1.7612051884794158,0.0
1445,1.4818893941979168,0.0
1446,-0.7802433658212363,0.0
1447,0.04835656971632671,0.0
1448,0.0004762503648524895,0.0
1449,-0.05413118800849878,0.0
1450,0.0699255800539714,0.0
1451,-0.06769813528991103,0.0
1452,-0.07137492360288236,0.0
1453,-0.042192725066912254,0.0
1454,-0.1430382443345927,0.0
1455,-0.14450420334785044,0.0
1456,-0.004707577997430105,0.0
1457,0.060654176391746396,0.0
1458,-0.003887589691652451,0.0
1459,-0.05667343215145613,0.0
1460,0.2581773566892225,0.0
1461,3.761399159425475,0.0
1462,6.741149220138402,0.0
1463,-0.6927575502965386,0.0
1464,-1.6922682015061699,0.0
1465,1.431284681775788,0.0
1466,-0.6691192849341276,0.0
1467,0.08248289004223074,0.0
1468,0.007982308604937611,0.0
1469,0.029816542912792933,0.0
1470,-0.09099284851338996,0.0
1471,-0.023810063633525495,0.0
1472,-0.04780697478656891,0.0
1473,-0.03299271593961863,0.0
1474,-0.03996113093647354,0.0
1475,-0.03888052508755514,0.0
1476,-0.020489747733277344,0.0
1477,-0.055730238359862856,0.0
1478,-0.15504309687733003,0.0
1479,-0.04988593578108539,0.0
1480,0.24399428574161547,0.0
1481,3.7364410732756634,0.0
1482,6.763195110540257,0.0
1483,-0.7044742330044892,0.0
1484,-1.8500911990282694,0.0
1485,1.4452915552504233,0.0
1486,-0.832691538419662,0.0
1487,0.10732325495999702,0.0
1488,-0.060379731663447185,0.0
1489,-0.016575752872962188,0.0
1490,-0.0612616076081207,0.0
1491,-0.045585584689207745,0.0
1492,-0.09082496221135156,0.0
1493,-0.0030529533548322788,0.0
1494,0.07151824862826146,0.0
1495,0.053524816737131345,0.0
1496,0.0118566266970756,0.0
1497,-0.030486428031908153,0.0
1498,0.08377394026697545,0.0
1499,0.0895249952064295,0.0
1500,0.2607752325090882,0.0
1501,3.687275829698896,0.0
1502,6.753119596015161,0.0
1503,-0.7068540387953638,0.0
1504,-1.7482778733958952,0.0
1505,1.517713242912579,0.0
1506,-0.7879785868273544,0.0
1507,0.16878107389943295,0.0
1508,-0.040373634373995854,0.0
1509,-0.05760053230399793,0.0
1510,-0.011897405835010085,0.0
1511,-0.05300775100676891,0.0
1512,-0.12690967424596566,0.0
1513,-0.09991730633140913,0.0
1514,0.042639706726118644,0.0
1515,0.011566200428951805,0.0
1516,-0.027736401705660083,0.0
1517,-0.0456897084826402,0.0
1518,0.02849836871050667,0.0
1519,0.10385195413015184,0.0
1520,0.388858789637845,0.0
1521,3.7702533909828646,0.0
1522,6.876960221822507,0.0
1523,-0.5512407889718475,0.0
1524,-1.7062717255318558,0.0
1525,1.5553434740194418,0.0
1526,-0.7675301723367807,0.0
1527,0.20866086189581737,0.0
1528,0.008615464487211906,0.0
1529,-0.0024068552653540923,0.0
1530,-0.0365399739868222,0.0
1531,-0.05497349638818785,0.0
1532,0.0353141239988519,0.0
1533,-0.04768283444129348,0.0
1534,-0.07311315177566785,0.0
1535,-0.0666105793995801,0.0
1536,-0.08454276207297032,0.0
1537,-0.029988281607509982,0.0
1538,-0.08714103037379906,0.0
1539,-0.0031781460943984957,0.0
1540,0.3043635805551731,0.0
1541,3.7248226009736194,0.0
1542,6.749800975687224,0.0
1543,-0.7266994242453424,0.0
1544,-1.674790362775949,0.0
1545,1.391806297560237,0.0
1546,-0.7301484856597908,0.0
1547,0.17865933616749827,0.0
1548,-0.015821739394794133,0.0
1549,-0.013571728492103731,0.0
1550,0.005876528004921669,0.0
1551,-0.02627190659876097,0.0
1552,0.0028088565935089505,0.0
1553,0.0033673428362952056,0.0
1554,0.02378449768287663,0.0
1555,-0.02156149356818203,0.0
1556,-0.01670447880378316,0.0
1557,-0.033505784325020306,0.0
1558,-0.05742255470019638,0.0
1559,-0.11094862094683863,0.0
1560,0.30737858728504497,0.0
1561,3.7654561868507517,0.0
1562,6.74370292069635,0.0
1563,-0.760715814889877,0.0
1564,-1.6743013512401224,0.0
1565,1.5805021221602582,0.0
1566,-0.7584636118389031,0.0
1567,0.14456610485215668,0.0
1568,-0.08434357355300229,0.0
1569,-0.022920020590575928,0.0
1570,-0.039912075001669156,0.0
1571,-0.06852977823143752,0.0
1572,0.03069399706051378,0.0
1573,-0.07915740466929849,0.0
1574,-0.13610116045410822,0.0
1575,-0.033611560190156486,0.0
1576,0.0006796181257440193,0.0
1577,-0.0023018709675654003,0.0
1578,-0.10547953968154443,0.0
1579,0.03614328072021446,0.0
1580,0.20867558389534224,0.0
1581,3.755920137299665,0.0
1582,6.761779732297278,0.0
1583,-0.7228177836469635,0.0
1584,-1.8554525000077604,0.0
1585,1.4642097298101715,0.0
1586,-0.7948948635723764,0.0
1587,0.12965420366529068,0.0
1588,-0.06819664034988893,0.0
1589,-0.10100443961669309,0.0
1590,-0.03331355881047585,0.0
1591,-0.015637196428624163,0.0
1592,0.008167996457196923,0.0
1593,-0.059863921090390994,0.0
1594,0.033557580392148845,0.0
1595,-0.0022257401116997713,0.0
1596,0.06053628350065213,0.0
1597,-0.13631922642709032,0.0
1598,-0.11776333330454647,0.0
1599,-0.06934800161159671,0.0
1600,0.2914306385959116,0.0
1601,3.7236035118763873,0.0
1602,6.71696833945286,0.0
1603,-0.77609849186371,0.0
1604,-1.7668058238932012,0.0
1605,1.498885439392719,0.0
1606,-0.8451697190835777,0.0
1607,0.07620984056394159,0.0
1608,-0.05600813750948057,0.0
1609,-0.10053546520725543,0.0
1610,0.00828273432294745,0.0
1611,0.11151738067430755,0.0
1612,-0.07705280358436734,0.0
1613,0.01910549242764012,0.0
1614,-0.07059499430138816,0.0
1615,-0.11319576411210838,0.0
1616,-0.06541945612204415,0.0
1617,0.030284356686088705,0.0
1618,-0.04018563305459495,0.0
1619,-0.10136024835470306,0.0
1620,0.22629586214623965,0.0
1621,3.6784296103447693,0.0
1622,6.74373376959069,0.0
1623,-0.7097874240960007,0.0
1624,-1.7508220332446176,0.0
1625,1.4410661444930364,0.0
1626,-0.7669461038225358,0.0
1627,0.23391812317450464,0.0
1628,0.032900432448307634,0.0
1629,0.0227984327044069,0.0
1630,-0.0016501171513277832,0.0
1631,-0.011086824264671113,0.0
1632,-0.011267540555869933,0.0
1633,-0.13515441035546727,0.0
1634,-0.08270948106840592,0.0
1635,-0.04368838683866651,0.0
1636,-0.11911610934118216,0.0
1637,-0.07804658499235327,0.0
1638,-0.12872387813740127,0.0
1639,-0.14679044037406208,0.0
1640,0.19422575913421658,0.0
1641,3.7068158991186015,0.0
1642,6.618462050518108,0.0
1643,-0.8916722729257536,0.0
1644,-1.7749410985379126,0.0
1645,1.442261876729801,0.0
1646,-0.8832519886973842,0.0
1647,0.0413233759667857,0.0
1648,-0.07335478540165456,0.0
1649,-0.2417826464066255,0.0
1650,-0.1012079523191841,0.0
1651,-0.060412743963580415,0.0
1652,-0.07893905180146119,0.0
1653,-0.11744797337444901,0.0
1654,-0.1763286310237995,0.0
1655,-0.05551088243843948,0.0
1656,-0.18927949191660448,0.0
1657,-0.039201900800241295,0.0
1658,-0.07899756354373502,0.0
1659,-0.09408678959878214,0.0
1660,0.3552492877014197,0.0
1661,3.770586407716221,0.0
1662,6.7138277290389645,0.0
1663,-0.7021350949939589,0.0
1664,-1.685309001946607,0.0
1665,1.4594156937868226,0.0
1666,-0.7777394741753682,0.0
1667,0.17574135008435288,0.0
1668,-0.023514499767154917,0.0
1669,-0.05733322336988266,0.0
1670,-0.03147058248866799,0.0
1671,-0.1270427899063116,0.0
1672,-0.11807658654959699,0.0
1673,0.07060242137139926,0.0
1674,-0.0704710139023065,0.0
1675,-0.012083477296021751,0.0
1676,-0.003367559180236672,0.0
1677,0.03213342457073547,0.0
1678,-0.023307581750457444,0.0
1679,0.002116308563976349,0.0
1680,0.3704578391941665,0.0
1681,3.7564503150892743,0.0
1682,6.789946604092096,0.0
1683,-0.773087148692799,0.0
1684,-1.6946576145096564,0.0
1685,1.4415014028646709,0.0
1686,-0.8396982870661778,0.0
1687,0.12164669880544968,0.0
1688,0.006318940079128532,0.0
1689,-0.0980112203698479,0.0
1690,-0.07390304658475363,0.0
1691,-0.13311473109678632,0.0
1692,-0.07579631595754562,0.0
1693,-0.16392543782052285,0.0
1694,-0.0635202017147253,0.0
1695,-0.10868221052536886,0.0
1696,-0.03541835226782844,0.0
1697,0.03590017852659727,0.0
1698,-0.04706171863855807,0.0
1699,-0.04181903367208012,0.0
1700,0.273204897943907,0.0
1701,3.737259738377322,0.0
1702,6.700502922354047,0.0
1703,-0.8090976526927888,0.0
1704,-1.7104172327407867,0.0
1705,1.561934733998144,0.0
1706,-0.7656249689506532,0.0
1707,0.15916329435347998,0.0
1708,-0.051265111815517656,0.0
1709,-0.08505542176909683,0.0
1710,0.007626912989564128,0.0
1711,-0.1367119203862837,0.0
1712,-0.025341861523256737,0.0
1713,-0.1276096143629044,0.0
1714,-0.009846967212628354,0.0
1715,-0.11689773879953688,0.0
1716,-0.011213141567424523,0.0
1717,0.016647647980353956,0.0
1718,-0.007206636760751017,0.0
1719,-0.030913451541891394,0.0
1720,0.3063721050865766,0.0
1721,3.7682887533067535,0.0
1722,6.674646505510571,0.0
1723,-0.737040755017483,0.0
1724,-1.6558034452778907,0.0
1725,1.5402239800013515,0.0
1726,-0.7004538765737955,0.0
1727,0.13337083026835705,0.0
1728,-0.04067854668639259,0.0
1729,-0.06461781039523741,0.0
1730,0.039366608693600355,0.0
1731,0.005668148557760683,0.0
1732,-0.018124114847414913,0.0
1733,0.003564527406563288,0.0
1734,0.008478929716980839,0.0
1735,0.0014005845399569922,0.0
1736,-0.03211120600747581,0.0
1737,0.051306334457441226,0.0
1738,-0.0728125244958143,0.0
1739,0.05057799412711597,0.0
1740,0.33565449290152033,0.0
1741,3.7067083018486984,0.0
1742,6.850024800713284,0.0
1743,-0.7962212433186986,0.0
1744,-1.6722175887327815,0.0
1745,1.5042041078526152,0.0
1746,-0.7261636947907506,0.0
1747,0.12021760231271139,0.0
1748,0.06647561811754987,0.0
1749,-0.06539747452683993,0.0
1750,-0.024997751164788373,0.0
1751,-0.04578621504959311,0.0
1752,-0.06574910981512402,0.0
1753,0.008526075983622605,0.0
1754,-0.09577548739276592,0.0
1755,-0.014503330668339358,0.0
1756,0.021050173386000893,0.0
1757,-0.1129496252861403,0.0
1758,-0.12153631598642542,0.0
1759,-0.05931816624804465,0.0
1760,0.20295256275231238,0.0
1761,3.7379428314821777,0.0
1762,6.731905830094649,0.0
1763,-0.6725352712894388,0.0
1764,-1.7932260974999408,0.0
1765,1.4743392211601647,0.0
1766,-0.7800697017408127,0.0
1767,0.09890550593257418,0.0
1768,0.07482940722482077,0.0
1769,-0.09372862148782499,0.0
1770,0.009407302230611146,0.0
1771,-0.08982165935866386,0.0
1772,-0.022444699908876237,0.0
1773,0.010678687707254456,0.0
1774,0.041886883309742905,0.0
1775,0.030973667867632303,0.0
1776,0.05670096921706269,0.0
1777,0.030695212954936234,0.0
1778,0.03909906645059376,0.0
1779,0.025665467017483314,0.0
1780,0.2982522992753376,0.0
1781,3.818180694492361,0.0
1782,6.765501119835571,0.0
1783,-0.6999302955737647,0.0
1784,-1.6584409379525866,0.0
1785,1.473715035591335,0.0
1786,-0.7573469200713956,0.0
1787,0.14270002178370692,0.0
1788,-0.05642877267736876,0.0
1789,-0.011469984623145971,0.0
1790,0.029156933453202992,0.0
1791,-0.0037147712460092117,0.0
1792,-0.09325938086169377,0.0
1793,0.0062842184855227,0.0
1794,-0.0026862703089146553,0.0
1795,-0.0844094888522299,0.0
1796,-0.028024066463067522,0.0
1797,-0.06777245837625716,0.0
1798,-0.06661246044244462,0.0
1799,-0.14001230730913522,0.0
1800,0.26010773879797755,0.0
1801,3.710162713640045,0.0
1802,6.708915375656361,0.0
1803,-0.8276368094066613,0.0
1804,-1.7741154132353931,0.0
1805,1.4691634566677714,0.0
1806,-0.8235046322230253,0.0
1807,0.14580151999218496,0.0
1808,0.014647399481769002,0.0
1809,-0.19657806046807663,0.0
1810,0.017553567888397237,0.0
1811,0.04304918167874762,0.0
1812,0.1265086813604375,0.0
1813,-0.019957115908718362,0.0
1814,0.05331044477906994,0.0
1815,0.10057209649012022,0.0
1816,0.11350228027452314,0.0
1817,0.021553070860245663,0.0
1818,-0.010638787983040549,0.0
1819,-0.0005364423392780447,0.0
1820,0.35256153471997653,0.0
1821,3.800919838204159,0.0
1822,6.65764320689116,0.0
1823,-0.7882919483876148,0.0
1824,-1.7655356190384943,0.0
1825,1.4847605253098746,0.0
1826,-0.7968871869373633,0.0
1827,0.10450145253211537,0.0
1828,-0.0319571492833733,0.0
1829,-0.0480713109830088,0.0
1830,-0.056803249951561434,0.0
1831,-0.012757826605550629,0.0
1832,-0.06621271183912793,0.0
1833,0.019559674170008,0.0
1834,-0.015292991195690745,0.0
1835,0.003506060173289966,0.0
1836,0.07025102980833546,0.0
1837,-0.0027952222282377343,0.0
1838,-0.05131145776960623,0.0
1839,-0.017545657067378904,0.0
1840,0.3076501471769969,0.0
1841,3.914128421349247,0.0
1842,6.622931989993113,0.0
1843,-0.7751232997496307,0.0
1844,-1.6500345928498823,0.0
1845,1.529664132449465,0.0
1846,-0.7701062976735024,0.0
1847,0.15931835533067681,0.0
1848,0.0016148178140478892,0.0
1849,0.03347725260581435,0.0
1850,-0.005628655057351821,0.0
1851,0.02712223599624482,0.0
1852,0.014127474291430527,0.0
1853,0.05470466015920066,0.0
1854,-0.03990054561294792,0.0
1855,0.01910433680807817,0.0
1856,-0.044553242164764265,0.0
1857,0.04193856608095459,0.0
1858,0.04366103747166494,0.0
1859,0.034245737438884066,0.0
1860,0.426955836938741,0.0
1861,3.9671710626401606,0.0
1862,6.832744737324763,0.0
1863,-0.6402377745645762,0.0
1864,-1.7083492235482436,0.0
1865,1.4718891460315888,0.0
1866,-0.6787091657821988,0.0
1867,0.20140490318356086,0.0
1868,0.010913471668426163,0.0
1869,0.03658046052283759,0.0
1870,-0.008757058994074092,0.0
1871,0.03678102746262561,0.0
1872,0.07316968818787462,0.0
1873,0.09120750613736614,0.0
1874,0.044057364956418654,0.0
1875,0.10061838222957249,0.0
1876,0.059923898941425316,0.0
1877,-0.022885029016440527,0.0
1878,-0.01393729542421121,0.0
1879,0.12073945013714647,0.0
1880,0.3889291413189818,0.0
1881,3.906326997594878,0.0
1882,6.779501917857536,0.0
1883,-0.8436901643275091,0.0
1884,-1.6806091016630436,0.0
1885,1.5289839915239225,0.0
1886,-0.7094997227195712,0.0
1887,0.26551586311927444,0.0
1888,-0.02990419195297272,0.0
1889,-0.08273916425813331,0.0
1890,0.016123954085690624,0.0
1891,-0.00416582824688392,0.0
1892,0.02522564604773424,0.0
1893,-0.02589019896551207,0.0
1894,0.02223130977537747,0.0
1895,-0.08277185180021626,0.0
1896,0.006191402561680874,0.0
1897,-0.1320101348113582,0.0
1898,0.052673795450625366,0.0
1899,-0.11081996886587153,0.0
1900,0.3204690510146112,0.0
1901,3.8404685116033264,0.0
1902,6.6619372827355905,0.0
1903,-0.8507580951269891,0.0
1904,-1.7324802872043132,0.0
1905,1.454392017147017,0.0
1906,-0.7641456577238531,0.0
1907,0.0970735684652608,0.0
1908,0.07603889040708356,0.0
1909,-0.015869983136343913,0.0
1910,0.051996430700463975,0.0
1911,-0.02344133351878145,0.0
1912,0.09844484355410638,0.0
1913,-0.014563505008784922,0.0
1914,0.057351038477687494,0.0
1915,-0.03824368283686534,0.0
1916,0.007407753775433082,0.0
1917,0.060392668229778526,0.0
1918,0.00747911345162304,0.0
1919,0.052375317487501266,0.0
1920,0.41485977827970955,0.0
1921,3.9058754675092073,0.0
1922,6.808123452779656,0.0
1923,-0.8361606426056698,0.0
1924,-1.6599009307772719,0.0
1925,1.4552482224199894,0.0
1926,-0.7583050318405348,0.0
1927,0.2731389008815125,0.0
1928,0.020582187700457243,0.0
1929,-0.00696964689689835,0.0
1930,0.02710627949232229,0.0
1931,-0.0843172494784325,0.0
1932,-0.026186544342327193,0.0
1933,0.041597094457586754,0.0
1934,0.03127796244781839,0.0
1935,0.038765907310654414,0.0
1936,0.0011603051260039923,0.0
1937,0.1111860765915457,0.0
1938,-0.040415050017162585,0.0
1939,-0.015443382278978256,0.0
1940,0.3896402899076788,0.0
1941,3.861936209953028,0.0
1942,6.797967511791795,0.0
1943,-0.7296752189664039,0.0
1944,-1.6092517664229946,0.0
1945,1.5133183851790852,0.0
1946,-0.7077844704448005,0.0
1947,0.20835923897333675,0.0
1948,0.1076989678971538,0.0
1949,0.022323365436019208,0.0
1950,0.0675839729471725,0.0
1951,0.1746259945924833,0.0
1952,0.04205756965566113,0.0
1953,-0.03795909042289505,0.0
1954,0.05437461851660859,0.0
1955,0.0175596884612763,0.0
1956,-0.0046338412197419535,0.0
1957,0.03949985296713439,0.0
1958,0.041699709239463895,0.0
1959,0.06077198378475587,0.0
1960,0.3873582386995481,0.0
1961,3.892890531093757,0.0
1962,6.786101052959513,0.0
1963,-0.7389306418107322,0.0
1964,-1.5987997038155688,0.0
1965,1.5790197907093557,0.0
1966,-0.6411692561376326,0.0
1967,0.2679199008424676,0.0
1968,0.04759981324736587,0.0
1969,0.05378122162485535,0.0
1970,0.11927223393027006,0.0
1971,0.0918185286715065,0.0
1972,0.08613256684432932,0.0
1973,0.10583460963775043,0.0
1974,0.05711918276832256,0.0
1975,0.06304951364476898,0.0
1976,-0.05783141103979144,0.0
1977,-0.030850359435018904,0.0
1978,0.03503741664674916,0.0
1979,0.08410348603418832,0.0
1980,0.4435554472751879,0.0
1981,3.8673236471824777,0.0
1982,6.776410588933469,0.0
1983,-0.88452001950917,0.0
1984,-1.570523362308568,0.0
1985,1.4809037424687257,0.0
1986,-0.7018764787950482,0.0
1987,0.21153248031923927,0.0
1988,0.0681344715092807,0.0
1989,0.03299816799844782,0.0
1990,0.06132662663058551,0.0
1991,-0.08179095019922117,0.0
1992,0.04012815259573116,0.0
1993,0.027142475278692787,0.0
1994,-0.04197913819183487,0.0
1995,0.10794108424767716,0.0
1996,-0.06913573875249167,0.0
1997,-0.03379198889924568,0.0
1998,-0.04050553143341989,0.0
1999,-0.03216430590560358,0.0
2000,0.39059360659321296,0.0
2001,3.8537886682706586,0.0
2002,6.712929064809821,0.0
2003,-0.8855177137495228,0.0
2004,-1.5987886830156637,0.0
2005,1.4684325628638528,0.0
2006,-0.7610419933887241,0.0
2007,0.22014777833745727,0.0
2008,0.07582395729787768,0.0
2009,0.025392814224778293,0.0
2010,-0.0023316876726528837,0.0
2011,0.09108660801377483,0.0
2012,-0.035906041201839045,0.0
2013,0.04021138654011631,0.0
2014,0.03479932928532016,0.0
2015,0.027577428062344162,0.0
2016,0.04063206709089824,0.0
2017,-0.0487349625594977,0.0
2018,0.05574153171092089,0.0
2019,0.04343074693265032,0.0
2020,0.31952455715489686,0.0
2021,3.896472966600295,0.0
2022,6.672519164549864,0.0
2023,-0.7685267353477635,0.0
2024,-1.655430222685804,0.0
2025,1.5383516059949836,0.0
2026,-0.7463563437948646,0.0
2027,0.26223156200748443,0.0
2028,-0.06300355197966173,0.0
2029,-0.06248410036995031,0.0
2030,-0.004304146440776008,0.0
2031,0.06355434312038409,0.0
2032,0.024829051797611155,0.0
2033,-0.005441458078675524,0.0
2034,-0.03517444408705802,0.0
2035,-0.10726664782778696,0.0
2036,-0.028874368794109397,0.0
2037,0.08427717892789555,0.0
2038,-0.005544440457137586,0.0
2039,0.02515629144779221,0.0
2040,0.33304591413124807,0.0
2041,3.9329761301212156,0.0
2042,6.777573459720382,0.0
2043,-0.8218571738762285,0.0
2044,-1.6261408153731933,0.0
2045,1.5577110549919364,0.0
2046,-0.678635457114826,0.0
2047,0.24760435990315943,0.0
2048,-0.12437855081723274,0.0
2049,0.004671604656273901,0.0
2050,0.09873961081487073,0.0
2051,0.008868597962579071,0.0
2052,0.08251027169181582,0.0
2053,-0.03424502768689591,0.0
2054,0.052385966155530074,0.0
2055,-0.010111638105956576,0.0
2056,0.040927880394764096,0.0
2057,0.006936655843136366,0.0
2058,0.1023644618315487,0.0
2059,0.06108932563202005,0.0
2060,0.4756556126216505,0.0
2061,3.97349374163806,0.0
2062,6.8007595282832245,0.0
2063,-0.8657652259149526,0.0
2064,-1.5688209396744,0.0
2065,1.488901828500175,0.0
2066,-0.6923896224771702,0.0
2067,0.19878936327993135,0.0
2068,-0.03208477442504028,0.0
2069,-0.03776696439898895,0.0
2070,0.0024568737451462173,0.0
2071,-0.0946563711795963,0.0
2072,-0.02132691664956062,0.0
2073,-0.10755201250628456,0.0
2074,0.025106162768393857,0.0
2075,0.004020502292334045,0.0
2076,0.018567799767718128,0.0
2077,0.10323446591877107,0.0
2078,0.03913565764733122,0.0
2079,0.019106928040197778,0.0
2080,0.4501510820115471,0.0
2081,4.020184923878179,0.0
2082,6.853600710384953,0.0
2083,-0.6320579196466871,0.0
2084,-1.596486016067092,0.0
2085,1.5854038410337798,0.0
2086,-0.7238428608920398,0.0
2087,0.29247794089621787,0.0
2088,0.12153895057333536,0.0
2089,-0.04451185909755283,0.0
2090,0.06940806367943385,0.0
2091,0.04732216795565949,0.0
2092,-0.015762228536494644,0.0
2093,0.024810751279419976,0.0
2094,0.061425126019719826,0.0
2095,0.017373091923186722,0.0
2096,0.003659164238208227,0.0
2097,-0.031585678093488626,0.0
2098,-0.06264037869257151,0.0
2099,-0.02298974139674508,0.0
2100,0.43470791719659524,0.0
2101,3.8985686554979235,0.0
2102,6.7696518001404336,0.0
2103,-0.9384203979239547,0.0
2104,-1.5736282418065786,0.0
2105,1.4612575239137915,0.0
2106,-0.7010328270753232,0.0
2107,0.20356026402917055,0.0
2108,0.008734389514293013,0.0
2109,-0.09823238002751301,0.0
2110,-0.0647057550435162,0.0
2111,-0.07455507120925542,0.0
2112,-0.08428025518195574,0.0
2113,-0.013860412386706537,0.0
2114,-0.09055264240709343,0.0
2115,0.01753120485640238,0.0
2116,0.07714979249437158,0.0
2117,-0.04857016778796379,0.0
2118,-0.04963423094810324,0.0
2119,0.054555036940199274,0.0
2120,0.3597495092908815,0.0
2121,3.9120000663298766,0.0
2122,6.767568160629015,0.0
2123,-0.8036928075377028,0.0
2124,-1.550289459855685,0.0
2125,1.4515993245814387,0.0
2126,-0.7588031361518577,0.0
2127,0.13054015284774934,0.0
2128,-0.06419095914079617,0.0
2129,-0.04587849783855828,0.0
2130,-0.015312616203232324,0.0
2131,-0.06828922719773957,0.0
2132,-0.03617587359162086,0.0
2133,0.04999119121273357,0.0
2134,0.0025038418066672813,0.0
2135,-0.0024855720978623555,0.0
2136,-0.003099895263099575,0.0
2137,0.07100259796951155,0.0
2138,0.011691078881275248,0.0
2139,0.07016096091957315,0.0
2140,0.36877382798292624,0.0
2141,3.9118829309627476,0.0
2142,6.7920475434046,0.0
2143,-0.7917582424989722,0.0
2144,-1.606288418254149,0.0
2145,1.5052564586875445,0.0
2146,-0.7041017829187124,0.0
2147,0.2414597690444802,0.0
2148,0.058068556421217256,0.0
2149,-0.035235077402496984,0.0
2150,0.013306462141327087,0.0
2151,-0.054672134529897096,0.0
2152,-0.004713447552668047,0.0
2153,0.020119570774051857,0.0
2154,-0.0538510227319906,0.0
2155,-0.012900699484832225,0.0
2156,0.010834126059091342,0.0
2157,-0.019119664483900737,0.0
2158,0.020717623765956858,0.0
2159,0.05915052894677948,0.0
2160,0.43325522989910165,0.0
2161,3.9501628548903884,0.0
2162,6.684502341978962,0.0
2163,-0.8131578906539698,0.0
2164,-1.5923876022741175,0.0
2165,1.4446511223101788,0.0
2166,-0.8032587407309975,0.0
2167,0.2276554096887456,0.0
2168,-0.005558803705764207,0.0
2169,-0.07879547274346818,0.0
2170,0.07967562898705197,0.0
2171,-0.024364965873836006,0.0
2172,-0.010958649413054428,0.0
2173,0.013576510218131235,0.0
2174,-0.09385435123619645,0.0
2175,0.025298058925600615,0.0
2176,0.02279387226254476,0.0
2177,-0.037811206823555134,0.0
2178,0.017077726748815966,0.0
2179,-0.04965562388212359,0.0
2180,0.4048758479000969,0.0
2181,4.025905582510069,0.0
2182,6.712853585142265,0.0
2183,-0.8134099163058575,0.0
2184,-1.6227894444356334,0.0
2185,1.471026744583545,0.0
2186,-0.6973949314412443,0.0
2187,0.21586153533914057,0.0
2188,0.031071426643059646,0.0
2189,-0.040234050397470925,0.0
2190,0.05504732088937071,0.0
2191,0.04036814526609382,0.0
2192,-0.03888761794998086,0.0
2193,-0.008719652648145896,0.0
2194,0.008432955065481335,0.0
2195,-0.00806301832029998,0.0
2196,0.06998594878426669,0.0
2197,-0.05969199885414486,0.0
2198,-0.12706968176468206,0.0
2199,0.007798907431477507,0.0
2200,0.3346632603785835,0.0
2201,3.8763264547853806,0.0
2202,6.760871456620049,0.0
2203,-0.8868982014127986,0.0
2204,-1.6405652464714486,0.0
2205,1.4395313747418628,0.0
2206,-0.8550846535767395,0.0
2207,0.1267874512944607,0.0
2208,-0.13019758186118233,0.0
2209,-0.07481477479328058,0.0
2210,-0.018501332799312018,0.0
2211,-0.06152426752662104,0.0
2212,0.00037024922875880314,0.0
2213,-0.017477476081851916,0.0
2214,-0.03302382461230703,0.0
2215,-0.03382255053994217,0.0
2216,-0.07324131878832038,0.0
2217,-0.06838223503031973,0.0
2218,-0.017926221208244837,0.0
2219,-0.11000468194133516,0.0
2220,0.2782968416438096,0.0
2221,3.8397128492222996,0.0
2222,6.689187600191044,0.0
2223,-0.9009205470023272,0.0
2224,-1.6299288776123964,0.0
2225,1.5282988711548373,0.0
2226,-0.875125927066606,0.0
2227,0.2013095596471513,0.0
2228,-0.05748350215087989,0.0
2229,-0.042690397524324034,0.0
2230,-0.006056604665938976,0.0
2231,-0.08179031149095933,0.0
2232,0.022076419888872247,0.0
2233,-0.055885323707930534,0.0
2234,-0.1678922010913626,0.0
2235,-0.01656129593124701,0.0
2236,-0.018720862361405466,0.0
2237,0.010453600216778693,0.0
2238,-0.018287903250810218,0.0
2239,0.01944646116176456,0.0
2240,0.2672651584363221,0.0
2241,3.8540052506686364,0.0
2242,6.636613857071824,0.0
2243,-0.8658620208528036,0.0
2244,-1.6490182343749016,0.0
2245,1.4215356075903793,0.0
2246,-0.78763864931825,0.0
2247,0.20796887777981393,0.0
2248,-0.03151525489684723,0.0
2249,-0.050339628277442046,0.0
2250,-0.05214344694843785,0.0
2251,-0.10641954842180408,0.0
2252,-0.1159485385512118,0.0
2253,-0.06196216896622915,0.0
2254,-0.1293297645425707,0.0
2255,-0.029915685878976313,0.0
2256,-0.140469794022203,0.0
2257,-0.06877133139521938,0.0
2258,-0.043681826334826215,0.0
2259,-0.07107916176873118,0.0
2260,0.3133836078516811,0.0
2261,3.7523668901765843,0.0
2262,6.638363807368457,0.0
2263,-0.9909671725714876,0.0
2264,-1.6321410794648326,0.0
2265,1.358612015475839,0.0
2266,-0.8028233435167393,0.0
2267,0.12118530463185767,0.0
2268,-0.049554104541550945,0.0
2269,-0.014517314998354763,0.0
2270,0.004185490255672823,0.0
2271,-0.09787783321236806,0.0
2272,-0.0110075968160043,0.0
2273,-0.06476037605394494,0.0
2274,-0.004607816847269394,0.0
2275,-0.028088548093942504,0.0
2276,-0.017274043933317156,0.0
2277,-0.07627101480586422,0.0
2278,-0.07935472565138367,0.0
2279,-0.03363577931920512,0.0
2280,0.2715121285208237,0.0
2281,3.7968111152840973,0.0
2282,6.659824880513227,0.0
2283,-0.9157710763161809,0.0
2284,-1.7052980895879846,0.0
2285,1.407576496523429,0.0
2286,-0.8269843369504501,0.0
2287,0.0770235769360943,0.0
2288,-0.07322524946965288,0.0
2289,-0.06633113669842075,0.0
2290,-0.028374219422564025,0.0
2291,-0.13275275417949436,0.0
2292,-0.0496939857439336,0.0
2293,-0.05660163797083251,0.0
2294,-0.013033957252583508,0.0
2295,-0.16925612384314248,0.0
2296,-0.17233120374259883,0.0
2297,-0.1081988615033668,0.0
2298,-0.0274204412368605,0.0
2299,-0.024884063788451205,0.0
2300,0.3473008955348078,0.0
2301,3.878048574170267,0.0
2302,6.64405685748618,0.0
2303,-0.8678035519059127,0.0
2304,-1.610583371334011,0.0
2305,1.3914229619412728,0.0
2306,-0.7632277569594224,0.0
2307,0.09138662987026255,0.0
2308,-0.0955768064603186,0.0
2309,-0.11013434542069578,0.0
2310,0.0062421473140957945,0.0
2311,-0.09010619446689541,0.0
2312,-0.033148219095903535,0.0
2313,-0.07446961944214188,0.0
2314,-0.08761353106386248,0.0
2315,-0.07234050502875354,0.0
2316,-0.05846810745075135,0.0
2317,-0.10811555267413284,0.0
2318,-0.07488498011805762,0.0
2319,-0.1514218527405134,0.0
2320,0.2919143880207958,0.0
2321,3.857561060607953,0.0
2322,6.65041683911451,0.0
2323,-0.9568643989269794,0.0
2324,-1.69398921555074,0.0
2325,1.4731553191141935,0.0
2326,-0.8414412771737672,0.0
2327,0.2022993916667632,0.0
2328,-0.10602356688154571,0.0
2329,-0.06701320656049299,0.0
2330,-0.04660718022797931,0.0
2331,-0.016720590780415795,0.0
2332,0.07003835467205909,0.0
2333,0.047616917965822125,0.0
2334,-0.07652162281740645,0.0
2335,0.08278805295270444,0.0
2336,-0.03912441933439731,0.0
2337,-0.03473883405457574,0.0
2338,-0.0970771346712386,0.0
2339,-0.07696337529619834,0.0
2340,0.26534273341345405,0.0
2341,3.899400557501101,0.0
2342,6.6780537627791,0.0
2343,-0.9215458760084678,0.0
2344,-1.6534561429051495,0.0
2345,1.3816079293916146,0.0
2346,-0.7923738403278064,0.0
2347,0.1298516095524356,0.0
2348,-0.06426241701532677,0.0
2349,-0.10686359769082499,0.0
2350,-0.009085852556076288,0.0
2351,-0.0340935627617878,0.0
2352,-0.0645993219587792,0.0
2353,-0.012826098229210346,0.0
2354,0.010090310565543763,0.0
2355,-0.05894120534177184,0.0
2356,-0.0659976213762812,0.0
2357,-0.0023294044657165072,0.0
2358,-0.014087494033198734,0.0
2359,-0.13222910432191895,0.0
2360,0.35918694139814294,0.0
2361,3.881325497058346,0.0
2362,6.59705946330203,0.0
2363,-0.9828520854931033,0.0
2364,-1.6505861529642536,0.0
2365,1.3264979694856949,0.0
2366,-0.8059600382420812,0.0
2367,0.2121152741355486,0.0
2368,-0.019141794695084792,0.0
2369,-0.08372269996682356,0.0
2370,-0.06289862297378165,0.0
2371,-0.04694500421605019,0.0
2372,-0.1556638592536965,0.0
2373,-0.01381967506035062,0.0
2374,0.07142349407201956,0.0
2375,0.019540519560012112,0.0
2376,0.02479583167012911,0.0
2377,0.07097059179745041,0.0
2378,0.015546357619929563,0.0
2379,0.02977571929166245,0.0
2380,0.4215686520984346,0.0
2381,3.9577596751553785,0.0
2382,6.730919714722872,0.0
2383,-0.8802149250235997,0.0
2384,-1.560112274985469,0.0
2385,1.438774380143356,0.0
2386,-0.7609126505267941,0.0
2387,0.23957435890679754,0.0
2388,-0.054364245501269684,0.0
2389,-0.03666328710003369,0.0
2390,0.006873896398458958,0.0
2391,0.05694947269799674,0.0
2392,-0.06533403133112438,0.0
2393,-0.0009159354427963756,0.0
2394,0.049865681733493455,0.0
2395,-0.10647253553258774,0.0
2396,-0.038736720454642076,0.0
2397,0.11465547944541395,0.0
2398,0.021738263531170716,0.0
2399,0.05793185633167872,0.0
2400,0.3412979732450088,0.0
2401,3.9654923752396343,0.0
2402,6.6735363323228425,0.0
2403,-0.8858316162516024,0.0
2404,-1.465784654336348,0.0
2405,1.44836857087968,0.0
2406,-0.7909873037918268,0.0
2407,0.25523606372437047,0.0
2408,0.07977186095632052,0.0
2409,0.11196807511880102,0.0
2410,0.016246977104586825,0.0
2411,0.07056137837583702,0.0
2412,0.11480906481875844,0.0
2413,-0.011527621343017984,0.0
2414,0.11960345523312571,0.0
2415,0.028240671082837853,0.0
2416,0.08951644982557243,0.0
2417,0.07125781969882895,0.0
2418,-0.016471957846229075,0.0
2419,0.10471865523185793,0.0
2420,0.27629443674230697,0.0
2421,3.998294297414445,0.0
2422,6.773148321208584,0.0
2423,-0.8742848560742892,0.0
2424,-1.5044466732854216,0.0
2425,1.518558902613718,0.0
2426,-0.8133917384033428,0.0
2427,0.22610549651608236,0.0
2428,-0.01891650416467882,0.0
2429,-0.014046881042715306,0.0
2430,0.035495294799086155,0.0
2431,0.0015644261858603244,0.0
2432,0.07367269088587769,0.0
2433,-0.01965019905542775,0.0
2434,-0.0062908448615316415,0.0
2435,0.049535909369931574,0.0
2436,-0.006190295883663422,0.0
2437,0.05940317757148049,0.0
2438,-0.02136744163040964,0.0
2439,0.07990041611890167,0.0
2440,0.44012630077598436,0.0
2441,3.8428626352527897,0.0
2442,6.688216496236593,0.0
2443,-0.8017562342842485,0.0
2444,-1.5299205787104,0.0
2445,1.4371994879358803,0.0
2446,-0.7132521286922012,0.0
2447,0.3431340260311754,0.0
2448,0.016893139627735265,0.0
2449,-0.007534453072670023,0.0
2450,0.06538090896526795,0.0
2451,-0.08657091441141665,0.0
2452,0.11121787251079901,0.0
2453,0.0645325557527154,0.0
2454,0.08421974636268971,0.0
2455,0.035055535302075086,0.0
2456,-0.03783643149029771,0.0
2457,0.0656062062242649,0.0
2458,0.03827489611060797,0.0
2459,0.030159070811367032,0.0
2460,0.39585101172213916,0.0
2461,4.06066562666808,0.0
2462,6.681542629397406,0.0
2463,-0.8902978796244277,0.0
2464,-1.5415185814146863,0.0
2465,1.4798918645015882,0.0
2466,-0.8744711700091006,0.0
2467,0.2792380414510869,0.0
2468,0.0364013394948988,0.0
2469,0.01132581857076715,0.0
2470,0.03694334166404973,0.0
2471,-0.05317881317012686,0.0
2472,0.03528333590598061,0.0
2473,-0.022325161226953612,0.0
2474,-0.0008868166930241263,0.0
2475,-0.04396373915090093,0.0
2476,0.02065306933154007,0.0
2477,0.012959670156537031,0.0
2478,-0.0014387615053895767,0.0
2479,4.4019671735296686e-05,0.0
2480,0.4520032214486915,0.0
2481,3.9577583312847144,0.0
2482,6.704544692439743,0.0
2483,-0.9541526411499232,0.0
2484,-1.537243393483928,0.0
2485,1.49911962962847,0.0
2486,-0.8639766489044799,0.0
2487,0.23148204467512462,0.0
2488,0.053468369539812405,0.0
2489,-0.03741993204935237,0.0
2490,-0.04331508307703846,0.0
2491,0.02203129061147103,0.0
2492,-0.016713966278731344,0.0
2493,-0.021864835280213147,0.0
2494,-0.08269997196315197,0.0
2495,-0.178500727075104,0.0
2496,0.044027872409026586,0.0
2497,0.06318687016403622,0.0
2498,-0.11858823346063435,0.0
2499,-0.03447688832046179,0.0
2500,0.2655033548586259,0.0
2501,3.896401606730585,0.0
2502,6.57047280562548,0.0
2503,-0.9960463698005603,0.0
2504,-1.6749787704159533,0.0
2505,1.4412104321675816,0.0
2506,-0.8138615287938376,0.0
2507,0.1676632516471251,0.0
2508,-0.06380805116926695,0.0
2509,-0.148408786576123,0.0
2510,-0.044095071527510875,0.0
2511,-0.051331306978116,0.0
2512,-0.14658638231245855,0.0
2513,-0.04166108734067244,0.0
2514,-0.10697978419169893,0.0
2515,-0.03201295505279251,0.0
2516,-0.06015160152965392,0.0
2517,0.017569388572237967,0.0
2518,-0.0558522221241365,0.0
2519,-0.043048667052065365,0.0
2520,0.3001034734164304,0.0
2521,4.003335139247228,0.0
2522,6.686640595231503,0.0
2523,-0.8967609114441452,0.0
2524,-1.5511196434678745,0.0
2525,1.3931853161317764,0.0
2526,-0.7686967201663767,0.0
2527,0.13919583263157648,0.0
2528,-0.04667557760543134,0.0
2529,-0.09444374674636935,0.0
2530,-0.0027610190544482965,0.0
2531,-0.05089962087471872,0.0
2532,-0.11905455803409683,0.0
2533,-0.04782263090861101,0.0
2534,-0.005085016594774755,0.0
2535,-0.04257871209037924,0.0
2536,-0.10020043173354704,0.0
2537,-0.10858594845377775,0.0
2538,0.026271578741267787,0.0
2539,-0.1385313906003863,0.0
2540,0.36859889390939343,0.0
2541,3.8666613425881797,0.0
2542,6.644528198181737,0.0
2543,-1.0266876474547695,0.0
2544,-1.603659392737737,0.0
2545,1.3787143910330208,0.0
2546,-0.8473320277276476,0.0
2547,0.11999338324599554,0.0
2548,-0.11010201693257957,0.0
2549,-0.2035526949039805,0.0
2550,-0.07497855528509742,0.0
2551,-0.12199855573217007,0.0
2552,-0.10115914885242042,0.0
2553,-0.058482567420028636,0.0
2554,-0.10273785587648149,0.0
2555,0.0630099632707549,0.0
2556,-0.03282234737883233,0.0
2557,-0.1009335522594169,0.0
2558,-0.11202839232672238,0.0
2559,-0.10237749640427872,0.0
2560,0.25477518123134507,0.0
2561,3.8658151180825437,0.0
2562,6.584818208180471,0.0
2563,-1.0082332952851487,0.0
2564,-1.549354321814627,0.0
2565,1.4394050802815013,0.0
2566,-0.8522162600773506,0.0
2567,0.14606298152886715,0.0
2568,-0.1646288716267235,0.0
2569,-0.24368608781803844,0.0
2570,-0.12934421079608865,0.0
2571,-0.10958313637931387,0.0
2572,-0.1776051132044854,0.0
2573,-0.17142484970146657,0.0
2574,-0.1019903088876924,0.0
2575,-0.07881806021926555,0.0
2576,-0.13029107173725768,0.0
2577,-0.12293428112839498,0.0
2578,-0.11488555234821793,0.0
2579,-0.09985439705422698,0.0
2580,0.32764887214254207,0.0
2581,3.972819153517146,0.0
2582,6.65662239359067,0.0
2583,-0.9638140273144563,0.0
2584,-1.6004252942234793,0.0
2585,1.4289033359673413,0.0
2586,-0.7946898946164194,0.0
2587,0.061893970239108684,0.0
2588,-0.01317476759080416,0.0
2589,-0.03687725974213257,0.0
2590,-0.17735588224943485,0.0
2591,-0.12428536328116054,0.0
2592,-0.0665839341809951,0.0
2593,-0.15992079888520006,0.0
2594,-0.1013920290289476,0.0
2595,-0.0258203988346912,0.0
2596,-0.1365749755715263,0.0
2597,-0.13863339928402296,0.0
2598,-0.06234674190573644,0.0
2599,-0.1654560342256105,0.0
2600,0.24902486997308415,0.0
2601,3.9205782530071915,0.0
2602,6.600229508781883,0.0
2603,-1.0295653282813844,0.0
2604,-1.5321538052549362,0.0
2605,1.372178094439746,0.0
2606,-0.8273345094951352,0.0
2607,0.12251498771846704,0.0
2608,-0.09535805600120757,0.0
2609,-0.09964226262351565,0.0
2610,0.01571123721382031,0.0
2611,-0.03815363990246758,0.0
2612,-0.06017582201583005,0.0
2613,-0.0063372220361002235,0.0
2614,-0.06992810771288163,0.0
2615,-0.11726369002448736,0.0
2616,-0.09888377117035903,0.0
2617,-0.0009328080390618443,0.0
2618,-0.05471106012982181,0.0
2619,-0.016059264233484496,0.0
2620,0.32018163029726676,0.0
2621,4.003310598504344,0.0
2622,6.632368534084143,0.0
2623,-1.0007838634703425,0.0
2624,-1.4593651525400966,0.0
2625,1.3584713296399424,0.0
2626,-0.8417367474137107,0.0
2627,0.14883930746863672,0.0
2628,-0.06169578659967471,0.0
2629,-0.03669606196767369,0.0
2630,-0.026665356319530126,0.0
2631,-0.028801788853819132,0.0
2632,-0.06591561438137616,0.0
2633,-0.03685256061483848,0.0
2634,0.009039613069089389,0.0
2635,-0.02333625583077753,0.0
2636,-0.028096616551866252,0.0
2637,-0.1142390155372778,0.0
2638,-0.0033291595824085016,0.0
2639,-0.05425598730820924,0.0
2640,0.32670349455500897,0.0
2641,3.9816605637383966,0.0
2642,6.621672739741239,0.0
2643,-1.0750555689945818,0.0
2644,-1.541557637862901,0.0
2645,1.4233958292860092,0.0
2646,-0.7993865090787823,0.0
2647,0.17048346623593924,0.0
2648,-0.07156578034945449,0.0
2649,-0.01293813059704891,0.0
2650,0.036772506665228535,0.0
2651,-0.03140483689632161,0.0
2652,-0.06622818949640205,0.0
2653,-0.0375278801017464,0.0
2654,-0.05414089611804882,0.0
2655,0.057890090269877834,0.0
2656,-0.006964504388240462,0.0
2657,0.005417676136827539,0.0
2658,-0.02385760525810353,0.0
2659,-0.04863984354870979,0.0
2660,0.39412267456830324,0.0
2661,3.9322125047676644,0.0
2662,6.568034617056396,0.0
2663,-0.9898792111818233,0.0
2664,-1.5135071206863833,0.0
2665,1.4895181906897355,0.0
2666,-0.7815788450756823,0.0
2667,0.17666057746445926,0.0
2668,-0.08484414158300277,0.0
2669,0.012799809136917337,0.0
2670,0.05421436473357685,0.0
2671,-0.020219418077364243,0.0
2672,0.026905873445316524,0.0
2673,0.07225972736966901,0.0
2674,-0.015051680861230184,0.0
2675,-0.013879424916370658,0.0
2676,-0.03943771991522273,0.0
2677,0.04141087850367997,0.0
2678,0.038935735001249666,0.0
2679,-0.09343684044501807,0.0
2680,0.33762851304809033,0.0
2681,3.9575525005258267,0.0
2682,6.505456095218618,0.0
2683,-1.0529997316325608,0.0
2684,-1.6025323064212835,0.0
2685,1.4583375387236905,0.0
2686,-0.7669888488281182,0.0
2687,0.17027402259353933,0.0
2688,-0.01289831897938465,0.0
2689,-0.05843572902442595,0.0
2690,0.20889663867990316,0.0
2691,0.053867295111019134,0.0
2692,0.035154139831608096,0.0
2693,0.058409112802022205,0.0
2694,0.08828254429367001,0.0
2695,0.106815483611543,0.0
2696,0.029038121368944216,0.0
2697,-0.05417445909326479,0.0
2698,0.031236723253747267,0.0
2699,0.09156745616955339,0.0
2700,0.44855487057699855,0.0
2701,3.985836522198441,0.0
2702,6.665445757330826,0.0
2703,-1.020668931241624,0.0
2704,-1.4880894630930952,0.0
2705,1.4341529735888328,0.0
2706,-0.7389117769609056,0.0
2707,0.22960485797778837,0.0
2708,-0.09170095682964992,0.0
2709,-0.020655025660879983,0.0
2710,0.029884327188679963,0.0
2711,-0.03241278671690734,0.0
2712,0.00734615435062653,0.0
2713,0.04385027313186687,0.0
2714,-0.013558996886943803,0.0
2715,-0.011346395832421613,0.0
2716,0.03118676745948907,0.0
2717,-0.011031538927062448,0.0
2718,0.025543804241398866,0.0
2719,-0.07469575697532924,0.0
2720,0.3467991926046315,0.0
2721,3.9429827155726676,0.0
2722,6.671599985108101,0.0
2723,-0.9195066622003222,0.0
2724,-1.5105174441984515,0.0
2725,1.4828353482888568,0.0
2726,-0.8251478382866635,0.0
2727,0.16621406829045668,0.0
2728,0.04657495396724848,0.0
2729,-0.019376870534702446,0.0
2730,-0.06550804302720355,0.0
2731,0.021818000929980354,0.0
2732,-0.03011596396546954,0.0
2733,0.09261650801420016,0.0
2734,0.04705726096490566,0.0
2735,0.01431979852103471,0.0
2736,0.022406007181139404,0.0
2737,0.05485384487635252,0.0
2738,0.027168449277214245,0.0
2739,-0.029863436383755437,0.0
2740,0.37214777311623487,0.0
2741,4.010618544746527,0.0
2742,6.6685200323309815,0.0
2743,-0.8703112550867033,0.0
2744,-1.528422263919994,0.0
2745,1.4917968160698125,0.0
2746,-0.7090085913115436,0.0
2747,0.23088035719014322,0.0
2748,0.0015755838613759655,0.0
2749,-0.027018097124366675,0.0
2750,0.08097285044921076,0.0
2751,0.0574178274090725,0.0
2752,0.04671841723657813,0.0
2753,0.04024879206626916,0.0
2754,0.0010511328293730318,0.0
2755,0.060104258278441854,0.0
2756,0.023892423532499315,0.0
2757,-0.11184068428608751,0.0
2758,0.10812832081032865,0.0
2759,0.043438087668566217,0.0
2760,0.4099541078628127,0.0
2761,3.9433649919535196,0.0
2762,6.591223476675857,0.0
2763,-1.0199431427479329,0.0
2764,-1.4521932922977896,0.0
2765,1.4321732500543953,0.0
2766,-0.8102754000767832,0.0
2767,0.1865347956423791,0.0
2768,-0.01899647064553152,0.0
2769,-0.12105642983049156,0.0
2770,0.009673507355261957,0.0
2771,0.029750554398331547,0.0
2772,-0.01745996234414163,0.0
2773,0.025879950814243026,0.0
2774,0.025822276362512643,0.0
2775,-0.0929967910092805,0.0
2776,-0.033360697843479975,0.0
2777,0.091498326374177,0.0
2778,0.14278555376939556,0.0
2779,0.016166951918769844,0.0
2780,0.3379019801540879,0.0
2781,4.016072075825794,0.0
2782,6.72677244610425,0.0
2783,-0.8790208075403577,0.0
2784,-1.4498952897637365,0.0
2785,1.4473562942222562,0.0
2786,-0.776027865009219,0.0
2787,0.22023084584254324,0.0
2788,0.04578789032413458,0.0
2789,0.00857387760769311,0.0
2790,0.04665137971041098,0.0
2791,0.03990419071830925,0.0
2792,0.023148571663249348,0.0
2793,0.12802879220642877,0.0
2794,-0.011335551170347208,0.0
2795,0.009927653764201582,0.0
2796,0.01147809393380666,0.0
2797,0.02369852766451128,0.0
2798,0.058408439956631086,0.0
2799,-0.08038465720359497,0.0
2800,0.4191039680895903,0.0
2801,3.919923695541666,0.0
2802,6.693150376054727,0.0
2803,-1.0108413300968269,0.0
2804,-1.5276978608501768,0.0
2805,1.3791950045449792,0.0
2806,-0.7588616707379153,0.0
2807,0.16149261582102675,0.0
2808,0.028081206980233652,0.0
2809,-0.05871081794341815,0.0
2810,-0.041317691057798644,0.0
2811,0.00665080257674568,0.0
2812,-0.03326131046142786,0.0
2813,0.02511419998573096,0.0
2814,0.06189402423611258,0.0
2815,0.061820979629479994,0.0
2816,0.03183550361373129,0.0
2817,0.04061093807266776,0.0
2818,0.033704638764757655,0.0
2819,0.0363721046390099,0.0
2820,0.3952226088775211,0.0
2821,3.8752722184458492,0.0
2822,6.647514426331086,0.0
2823,-1.0384744139952404,0.0
2824,-1.5516417656968482,0.0
2825,1.4031940881735152,0.0
2826,-0.8088041952812616,0.0
2827,0.17541444913570853,0.0
2828,-0.0323260762621026,0.0
2829,-0.05208500691093243,0.0
2830,-0.007369895304621475,0.0
2831,-0.021468199304360815,0.0
2832,0.09374602915428039,0.0
2833,-0.020528101943817278,0.0
2834,0.020012334728759504,0.0
2835,-0.0067573347032490174,0.0
2836,0.08324128919554347,0.0
2837,0.053477145103978586,0.0
2838,-0.001340796204959454,0.0
2839,-0.03494680124402181,0.0
2840,0.2689692917723006,0.0
2841,3.9708500595661627,0.0
2842,6.65298130559177,0.0
2843,-1.052500786040858,0.0
2844,-1.5639752971738772,0.0
2845,1.4660666555416446,0.0
2846,-0.9159867821858441,0.0
2847,0.1435466410534384,0.0
2848,0.00450877348958495,0.0
2849,-0.061752077449515996,0.0
2850,-0.07084752117614353,0.0
2851,0.04919163747436997,0.0
2852,-0.03426700467537034,0.0
2853,-0.008480640272861703,0.0
2854,-0.020316723421324692,0.0
2855,-0.06357821113297228,0.0
2856,-0.06489248634945273,0.0
2857,-0.03633187107522337,0.0
2858,0.0875394759999984,0.0
2859,-0.035216029250545816,0.0
2860,0.30082302143145284,0.0
2861,3.944297647816113,0.0
2862,6.6258515308425086,0.0
2863,-1.0946500267440296,0.0
2864,-1.4770709013479404,0.0
2865,1.4114966185144857,0.0
2866,-0.814256929895464,0.0
2867,0.2178853171482201,0.0
2868,-0.0027629149385546975,0.0
2869,-0.07089382351210485,0.0
2870,-0.021846626777372737,0.0
2871,-0.031556700577721225,0.0
2872,0.05350361462614551,0.0
2873,0.0727969132570678,0.0
2874,-0.020729476915849646,0.0
2875,-0.010249636531855535,0.0
2876,-0.06686950008131382,0.0
2877,-0.052060587236088744,0.0
2878,-0.06785730688596849,0.0
2879,0.02160873674134349,0.0
2880,0.35114942622919615,0.0
2881,3.9292873789702636,0.0
2882,6.643212110047581,0.0
2883,-0.9255556210524316,0.0
2884,-1.520495879178228,0.0
2885,1.333378174106364,0.0
2886,-0.780704442774253,0.0
2887,0.23800385918410583,0.0
2888,-0.06270530508476091,0.0
2889,-0.08407884999464557,0.0
2890,-0.02727490535157494,0.0
2891,-0.007593001001724744,0.0
2892,0.01749746474816562,0.0
2893,-0.010720824120589572,0.0
2894,0.02759180945916026,0.0
2895,0.03879878524621755,0.0
2896,0.054222846224743264,0.0
2897,-0.0022290888406019116,0.0
2898,0.08499629811620832,0.0
2899,0.05302961983753905,0.0
2900,0.4697390516362594,0.0
2901,3.979497806682631,0.0
2902,6.601355560701389,0.0
2903,-1.0581484160642523,0.0
2904,-1.3702999192025984,0.0
2905,1.460753241453412,0.0
2906,-0.6236551145526206,0.0
2907,0.26078288989554765,0.0
2908,0.11090132005264712,0.0
2909,0.0008157140427247772,0.0
2910,0.1292271583675098,0.0
2911,0.0319406488085516,0.0
2912,0.08685223405963734,0.0
2913,0.05593681501592962,0.0
2914,-0.07695597508439404,0.0
2915,0.03963750740361913,0.0
2916,0.009698100547850459,0.0
2917,-0.024706242471504842,0.0
2918,-0.027777850551227695,0.0
2919,-0.01828206511373185,0.0
2920,0.5211592769016878,0.0
2921,3.9575626655027936,0.0
2922,6.561543320988513,0.0
2923,-1.0834534872537802,0.0
2924,-1.5182983032914565,0.0
2925,1.4457022002214015,0.0
2926,-0.8527835906733028,0.0
2927,0.1644763635902273,0.0
2928,-0.026978529495802178,0.0
2929,-0.10852465149589072,0.0
2930,0.08060303845912208,0.0
2931,-0.027778139344317276,0.0
2932,0.01786133054319996,0.0
2933,-0.06892165882968597,0.0
2934,0.038408315042278464,0.0
2935,-0.0364354762130495,0.0
2936,0.039222468258423786,0.0
2937,0.018527902940855233,0.0
2938,0.06314422794019472,0.0
2939,-0.03202636137740806,0.0
2940,0.4910969238697275,0.0
2941,3.94682516475659,0.0
2942,6.617135768443862,0.0
2943,-1.0924206822037064,0.0
2944,-1.4880166040890592,0.0
2945,1.3500467016329838,0.0
2946,-0.7713680279704761,0.0
2947,0.22765325235594608,0.0
2948,-0.0022603670340812614,0.0
2949,-0.037495485111666685,0.0
2950,0.07082613066207613,0.0
2951,-0.028939098955827927,0.0
2952,-0.06563789643096969,0.0
2953,-0.06658790308044188,0.0
2954,-0.09747591460997101,0.0
2955,-0.016534019531642786,0.0
2956,-0.04547430140896634,0.0
2957,-0.0005285061536103135,0.0
2958,-0.030633656699927955,0.0
2959,0.08102080921771361,0.0
2960,0.3706668991508629,0.0
2961,4.008212207170571,0.0
2962,6.589917368240553,0.0
2963,-1.0977150542802643,0.0
2964,-1.4766591689631448,0.0
2965,1.414595266056339,0.0
2966,-0.83573833254609,0.0
2967,0.13060714908413468,0.0
2968,0.03696557030041411,0.0
2969,0.09922761220508983,0.0
2970,0.07577137581302565,0.0
2971,0.030205227786647252,0.0
2972,0.01396935885128658,0.0
2973,-0.09550061736374364,0.0
2974,-0.027274123345353844,0.0
2975,0.004357832970808884,0.0
2976,-0.037716951312530764,0.0
2977,0.038699950053014014,0.0
2978,0.011994538369272997,0.0
2979,0.08290796993605631,0.0
2980,0.4046399071635923,0.0
2981,3.9349828975901113,0.0
2982,6.679645495352286,0.0
2983,-1.1567285716958364,0.0
2984,-1.5784003791269077,0.0
2985,1.3560894001412174,0.0
2986,-0.8273735967419684,0.0
2987,0.1666735783079812,0.0
2988,-0.023637334596624177,0.0
2989,-0.05290166616608541,0.0
2990,0.009131090404506256,0.0
2991,-0.04744998932781276,0.0
2992,-0.009907077332179014,0.0
2993,-0.055850128365794276,0.0
2994,-0.041145781730830715,0.0
2995,-0.0912551972498176,0.0
2996,-0.08232398462561454,0.0
2997,-0.01617357721383928,0.0
2998,-0.08490713429391691,0.0
2999,-0.15385850162472908,0.0
3000,0.34635174222691345,0.0
3001,3.9459508172139532,0.0
3002,6.579310882499012,0.0
3003,-1.15268356489199,0.0
3004,-1.4779013034082866,0.0
3005,1.3611790344455976,0.0
3006,-0.8875758481591215,0.0
3007,0.2297401043999455,0.0
3008,-0.04034572593347617,0.0
3009,-0.07701174586525969,0.0
3010,-0.0562671546792665,0.0
3011,-0.09875519072742261,0.0
3012,-0.015745771454718567,0.0
3013,-0.09209072730661877,0.0
3014,0.05130912254387077,0.0
3015,0.044278428713897214,0.0
3016,-0.08835251182399054,0.0
3017,-0.0003599123315906616,0.0
3018,0.007318051603341466,0.0
3019,-0.14150440555934896,0.0
3020,0.3012736089159814,0.0
3021,3.94712396658715,0.0
3022,6.560275717219003,0.0
3023,-1.1118591267784492,0.0
3024,-1.497099822717278,0.0
3025,1.3947064954456303,0.0
3026,-0.849014712502835,0.0
3027,0.22896815723830027,0.0
3028,-0.11107307886373627,0.0
3029,-0.01825619816483505,0.0
3030,-0.04934031905806891,0.0
3031,-0.07416470936263,0.0
3032,-0.12919211855903437,0.0
3033,-0.029799494057405992,0.0
3034,-0.04712491870219149,0.0
3035,-0.07566371698138641,0.0
3036,-0.08549313541120301,0.0
3037,-0.0777943724056061,0.0
3038,-0.10068239172269715,0.0
3039,0.038679986301066095,0.0
3040,0.37770607415707746,0.0
3041,3.9817802321931652,0.0
3042,6.54944001269617,0.0
3043,-1.133728525710615,0.0
3044,-1.499403075386073,0.0
3045,1.457609841406911,0.0
3046,-0.8261294012804659,0.0
3047,0.18857749053014614,0.0
3048,-0.019542177237514516,0.0
3049,-0.029389707733360915,0.0
3050,-0.09084951394322291,0.0
3051,0.07754025550078017,0.0
3052,-0.08699328620074376,0.0
3053,-0.082057578626427,0.0
3054,-0.023112778537565753,0.0
3055,0.023461940581243117,0.0
3056,-0.029992985471299263,0.0
3057,-0.09379199203249788,0.0
3058,-0.015348739454110666,0.0
3059,-0.0746746065465454,0.0
3060,0.3188382566185046,0.0
3061,3.971868849847621,0.0
3062,6.598870238538955,0.0
3063,-1.1474049635623376,0.0
3064,-1.4423807060256137,0.0
3065,1.3928937564102046,0.0
3066,-0.901862429278404,0.0
3067,0.13600724054215121,0.0
3068,-0.07840712963115379,0.0
3069,-0.14259642012952833,0.0
3070,-0.11874314666282802,0.0
3071,0.006618730141104992,0.0
3072,-0.018562565138878488,0.0
3073,-0.0484968640832336,0.0
3074,-0.10418816140154838,0.0
3075,-0.001510774111532942,0.0
3076,-0.13692151196434077,0.0
3077,-0.09100721769640274,0.0
3078,-0.09478729661239552,0.0
3079,0.014189269242260133,0.0
3080,0.38963017871794026,0.0
3081,3.996397841584959,0.0
3082,6.501045593408761,0.0
3083,-1.1180644522030028,0.0
3084,-1.4967892667305958,0.0
3085,1.3354614568886136,0.0
3086,-0.8657014943638083,0.0
3087,0.13156177899595917,0.0
3088,-0.07060157628285942,0.0
3089,-0.0012953286969097366,0.0
3090,-0.15877261962725175,0.0
3091,-0.09140110055673697,0.0
3092,-0.1726424692711287,0.0
3093,-0.0950655496200402,0.0
3094,-0.014955771019093025,0.0
3095,-0.16850896784830294,0.0
3096,-0.10308102176722485,0.0
3097,-0.08735450217594232,0.0
3098,-0.08175401703269834,0.0
3099,0.05636741109291204,0.0
3100,0.3448438073023229,0.0
3101,4.006911784688869,0.0
3102,6.615988320372557,0.0
3103,-1.165749106733588,0.0
3104,-1.481955569008487,0.0
3105,1.3747893630489703,0.0
3106,-0.790809962074999,0.0
3107,0.14334714396743678,0.0
3108,-0.11012763582327238,0.0
3109,-0.06104185218666737,0.0
3110,-0.10088673410730856,0.0
3111,-0.016075407213136814,0.0
3112,-0.01192252135115391,0.0
3113,-0.10425602415045515,0.0
3114,-0.07391209309118613,0.0
3115,-0.14944163284901113,0.0
3116,0.03290690874994566,0.0
3117,-0.0807325484818147,0.0
3118,-0.12570067147412065,0.0
3119,-0.0410619597523237,0.0
3120,0.32679476255353446,0.0
3121,4.056223212930022,0.0
3122,6.5263638101209684,0.0
3123,-1.0743309109660133,0.0
3124,-1.4895080157254548,0.0
3125,1.3649802466840009,0.0
3126,-0.8273777217974404,0.0
3127,0.2442425239635338,0.0
3128,-0.03121674914669896,0.0
3129,-0.022350199655445338,0.0
3130,0.11546800682347622,0.0
3131,0.006837904016086256,0.0
3132,0.03259597531947652,0.0
3133,0.0045283644325471925,0.0
3134,-0.02257128358922112,0.0
3135,-0.07822402385070751,0.0
3136,-0.0020171679251168896,0.0
3137,-0.0025756840742971326,0.0
3138,0.003467584406687426,0.0
3139,-0.09409639403178754,0.0
3140,0.3634371024275766,0.0
3141,4.0452811436296505,0.0
3142,6.627772416266482,0.0
3143,-1.1568916867021486,0.0
3144,-1.429305235855244,0.0
3145,1.3848626383862541,0.0
3146,-0.7561881441112553,0.0
3147,0.16439849233761247,0.0
3148,-0.1267766158159555,0.0
3149,-0.08229588738503281,0.0
3150,-0.07095325332521607,0.0
3151,-0.006123932293583975,0.0
3152,-0.0815897930422845,0.0
3153,-0.03907211739062655,0.0
3154,-0.008673628706395816,0.0
3155,-0.15334446891818354,0.0
3156,-0.04562562934734721,0.0
3157,-0.0886172655226285,0.0
3158,0.07660065171465832,0.0
3159,-0.02459594073608257,0.0
3160,0.2898933243349463,0.0
3161,4.036727902225116,0.0
3162,6.6058802145392725,0.0
3163,-1.2110819664727077,0.0
3164,-1.4974152194047823,0.0
3165,1.4306421809453025,0.0
3166,-0.8465082438500156,0.0
3167,0.1493735546476351,0.0
3168,-0.11928663829265015,0.0
3169,-0.0784673098896361,0.0
3170,-0.07229284781387114,0.0
3171,-0.07711255721155592,0.0
3172,-0.0580697416374604,0.0
3173,-0.07319486018891255,0.0
3174,0.04782435347616041,0.0
3175,0.020965625673747032,0.0
3176,-0.07398879118374434,0.0
3177,0.012069077215726629,0.0
3178,-0.043627942993517944,0.0
3179,0.013507416599216282,0.0
3180,0.41026963329781185,0.0
3181,4.03654349567078,0.0
3182,6.537575819605298,0.0
3183,-1.0749464883416113,0.0
3184,-1.4823609382801677,0.0
3185,1.3416846480106357,0.0
3186,-0.7744711084665254,0.0
3187,0.22211795612049456,0.0
3188,-0.032591657284516025,0.0
3189,0.022053921395550978,0.0
3190,0.01689497013056012,0.0
3191,0.033612686769486366,0.0
3192,-0.058980126436399896,0.0
3193,0.031533803438089286,0.0
3194,0.09871741341061915,0.0
3195,-0.03424079817550245,0.0
3196,0.04024011570334413,0.0
3197,0.04772489771090513,0.0
3198,-0.04517666699230866,0.0
3199,0.04992094321543214,0.0
3200,0.36377367233864877,0.0
3201,4.021557509515431,0.0
3202,6.5679389476358185,0.0
3203,-1.0808903266635743,0.0
3204,-1.5004827134012555,0.0
3205,1.4145624288270549,0.0
3206,-0.8745825135045786,0.0
3207,0.21313972844194742,0.0
3208,-0.03156591409452264,0.0
3209,-0.041055935176827596,0.0
3210,0.049723213629151636,0.0
3211,-0.017876458617262295,0.0
3212,0.07995998741190384,0.0
3213,-0.04489189241828334,0.0
3214,0.0023648540377677442,0.0
3215,-0.01364462790745001,0.0
3216,-0.006911117657302103,0.0
3217,-0.06676488041531153,0.0
3218,-0.05045035843877818,0.0
3219,-0.07924296780606156,0.0
3220,0.2454252820273149,0.0
3221,4.153321283880941,0.0
3222,6.46798104088113,0.0
3223,-1.1663379778797986,0.0
3224,-1.463615599748401,0.0
3225,1.3556366800850812,0.0
3226,-0.8418114117515686,0.0
3227,0.17814704325771968,0.0
3228,-0.022554699524076686,0.0
3229,-0.048425775500375495,0.0
3230,0.040754960579885216,0.0
3231,-0.0777824903012252,0.0
3232,0.10440974458007682,0.0
3233,-0.035580150185625777,0.0
3234,0.03320680583374473,0.0
3235,-0.015375671091109912,0.0
3236,-0.00040538084202329863,0.0
3237,0.008689602910228914,0.0
3238,0.058201809983197225,0.0
3239,0.035891268817413814,0.0
3240,0.5038749519818829,0.0
3241,4.14236358658779,0.0
3242,6.583552800238478,0.0
3243,-1.0761167689304256,0.0
3244,-1.3797991082669165,0.0
3245,1.3448033829486932,0.0
3246,-0.7809142402478808,0.0
3247,0.22287250527093866,0.0
3248,-0.06617562217928522,0.0
3249,-0.030637471232956813,0.0
3250,0.02782127726365355,0.0
3251,-0.011889746065718826,0.0
3252,-0.08496214586232222,0.0
3253,-0.019679622706023994,0.0
3254,-0.06910290164383498,0.0
3255,-0.01948284551561493,0.0
3256,-0.023016502927903283,0.0
3257,-0.03508537854888264,0.0
3258,-0.10565773448892973,0.0
3259,-0.06293393094545267,0.0
3260,0.29470226751194695,0.0
3261,4.076528805218583,0.0
3262,6.555345021364424,0.0
3263,-1.2120176248549557,0.0
3264,-1.4513115715512581,0.0
3265,1.39469366999128,0.0
3266,-0.8313725702030897,0.0
3267,0.11090236816149673,0.0
3268,-0.10572471501424059,0.0
3269,-0.056919724919036276,0.0
3270,-0.07392109527530163,0.0
3271,-0.10717862248022733,0.0
3272,-0.11117225607830936,0.0
3273,-0.04486971318213184,0.0
3274,-0.06422302785407931,0.0
3275,-0.13182827805530223,0.0
3276,-0.07466393106960043,0.0
3277,-0.039247292709062104,0.0
3278,-0.10957500036400442,0.0
3279,-0.0931984779156674,0.0
3280,0.4053435768695992,0.0
3281,4.072371211065298,0.0
3282,6.530668823665542,0.0
3283,-1.2444349859442294,0.0
3284,-1.422283180615451,0.0
3285,1.3899242492957495,0.0
3286,-0.8296437974619829,0.0
3287,0.23815651490453604,0.0
3288,-0.009981679037228942,0.0
3289,-0.014691270693270607,0.0
3290,-0.014301888506440406,0.0
3291,-0.06201346196774602,0.0
3292,0.014214453386253177,0.0
3293,-0.08574779029652907,0.0
3294,-0.018834885862784194,0.0
3295,-0.06063752971013322,0.0
3296,-0.07198050859111735,0.0
3297,-0.12801235049021703,0.0
3298,-0.06358675053116601,0.0
3299,-0.1012040442592817,0.0
3300,0.35558128713571924,0.0
3301,4.061193556767237,0.0
3302,6.52664366907288,0.0
3303,-1.1861817702730522,0.0
3304,-1.5249519007598906,0.0
3305,1.3459584393120525,0.0
3306,-0.8213777515504822,0.0
3307,0.1929794260594986,0.0
3308,-0.033107782664606754,0.0
3309,-0.04659450711400416,0.0
3310,-0.055036059474145804,0.0
3311,-0.10250116163409959,0.0
3312,-0.14439502045140287,0.0
3313,-0.049592164364771214,0.0
3314,0.0661077585076284,0.0
3315,-0.026743580641133177,0.0
3316,-0.11610223810984549,0.0
3317,-0.009311847357039327,0.0
3318,-0.03519809629874536,0.0
3319,-0.005132388178362847,0.0
3320,0.3355093678409043,0.0
3321,4.052714963109913,0.0
3322,6.503103253069854,0.0
3323,-1.1199038978699467,0.0
3324,-1.5051597968070909,0.0
3325,1.3368148353668534,0.0
3326,-0.7445645121058095,0.0
3327,0.1897700547543873,0.0
3328,-0.12478399991319132,0.0
3329,-0.18577517282404316,0.0
3330,0.030872002151348665,0.0
3331,-0.04529715315166205,0.0
3332,-0.14149080090213195,0.0
3333,-0.0743096827466344,0.0
3334,-0.10801437505395328,0.0
3335,-0.06545817189317192,0.0
3336,-0.1481892656714558,0.0
3337,-0.15875931265837617,0.0
3338,-0.08634192581756725,0.0
3339,-0.06122712282260541,0.0
3340,0.29439539689465544,0.0
3341,4.03031015760165,0.0
3342,6.4775419571133455,0.0
3343,-1.2178795203458372,0.0
3344,-1.435315651314459,0.0
3345,1.3333942305278879,0.0
3346,-0.7984205150798094,0.0
3347,0.17053973491944496,0.0
3348,-0.019986899539431703,0.0
3349,-0.07170186415100636,0.0
3350,-0.022359935745632477,0.0
3351,0.016047858977358123,0.0
3352,-0.04814566166179968,0.0
3353,-0.04327946514958943,0.0
3354,-0.04590878979086212,0.0
3355,0.04339094860515111,0.0
3356,-0.04076475096469205,0.0
3357,-0.0342411679566039,0.0
3358,-0.08597568287810248,0.0
3359,-0.0708001758577518,0.0
3360,0.3199166516504782,0.0
3361,4.15333985666336,0.0
3362,6.629521923185759,0.0
3363,-1.1921150098680688,0.0
3364,-1.445103416314595,0.0
3365,1.430865015941389,0.0
3366,-0.8104886271045846,0.0
3367,0.1107666015276626,0.0
3368,-0.0031782015734912183,0.0
3369,-0.1250414547226184,0.0
3370,-0.02202868862530032,0.0
3371,-0.09123237445008546,0.0
3372,-0.052320717730142643,0.0
3373,-0.06994907518990134,0.0
3374,-0.005206315496698394,0.0
3375,-0.000255886941937393,0.0
3376,0.04747804131310287,0.0
3377,0.04636634997160714,0.0
3378,-0.05610026177004122,0.0
3379,-0.06608992686269173,0.0
3380,0.3876707370499761,0.0
3381,4.030440379990123,0.0
3382,6.508847126135361,0.0
3383,-1.3178596233828077,0.0
3384,-1.355042629447155,0.0
3385,1.3702939437570565,0.0
3386,-0.7647042005454361,0.0
3387,0.25251803980631615,0.0
3388,-0.15021585309293112,0.0
3389,-0.16059118044293386,0.0
3390,-0.010566605127777549,0.0
3391,0.012038199708121838,0.0
3392,-0.05271016275559598,0.0
3393,-0.08428309616956073,0.0
3394,0.07821611849503468,0.0
3395,-0.06060162879557126,0.0
3396,-0.09402423349457326,0.0
3397,0.003359897631415004,0.0
3398,0.012035839695257476,0.0
3399,-0.06899447036247615,0.0
3400,0.444174934438695,0.0
3401,4.094538992353784,0.0
3402,6.5318401463657905,0.0
3403,-1.2355739518556128,0.0
3404,-1.4281775795253724,0.0
3405,1.366977688240296,0.0
3406,-0.8528281784500584,0.0
3407,0.23613280173113455,0.0
3408,-0.0615682907804479,0.0
3409,-0.05546844933688334,0.0
3410,-0.014555975856980072,0.0
3411,-0.030011098270353302,0.0
3412,-0.14906525959117145,0.0
3413,-0.15666470879686206,0.0
3414,-0.044328167501083454,0.0
3415,-0.01278936904832189,0.0
3416,-0.03334785102165859,0.0
3417,-0.04060433927329983,0.0
3418,0.02062484568565197,0.0
3419,-0.06350427326694648,0.0
3420,0.3923903551621236,0.0
3421,4.055622303376344,0.0
3422,6.665268996250477,0.0
3423,-1.0950257104599876,0.0
3424,-1.3774258601659801,0.0
3425,1.4066936688469962,0.0
3426,-0.7626324677799331,0.0
3427,0.28926921843691966,0.0
3428,0.14334621311643705,0.0
3429,-0.1549976297316232,0.0
3430,0.028478361798348326,0.0
3431,0.02821553382183936,0.0
3432,0.09495769956808292,0.0
3433,-0.04401257721682761,0.0
3434,0.042254775822891215,0.0
3435,0.09240775827337447,0.0
3436,-0.001991474872802524,0.0
3437,0.0027021984491617888,0.0
3438,-0.07179379073061762,0.0
3439,-0.038458026625712224,0.0
3440,0.40485626708416367,0.0
3441,4.047773690186837,0.0
3442,6.546423823329847,0.0
3443,-1.2844698021008347,0.0
3444,-1.3942098325201067,0.0
3445,1.3118412624515077,0.0
3446,-0.9382853461666497,0.0
3447,0.08710207978372742,0.0
3448,-0.01962829664459148,0.0
3449,-0.12943394897020688,0.0
3450,0.007467582449829251,0.0
3451,0.02122255993433471,0.0
3452,-0.07782155256541502,0.0
3453,-0.028950797169780107,0.0
3454,-0.013319038034112825,0.0
3455,0.06817458878610107,0.0
3456,-0.016918481991797407,0.0
3457,-0.0011113636799628115,0.0
3458,0.04815912348314579,0.0
3459,0.06358753610316129,0.0
3460,0.4553513250024377,0.0
3461,4.070024649818363,0.0
3462,6.580539702844574,0.0
3463,-1.0950289212688231,0.0
3464,-1.3702929942618232,0.0
3465,1.3861960413713954,0.0
3466,-0.8106050775595988,0.0
3467,0.20836636184900742,0.0
3468,0.028546040253252483,0.0
3469,-0.010329321270919227,0.0
3470,-0.00402498446419766,0.0
3471,-0.03912690954556962,0.0
3472,0.004494066046101712,0.0
3473,0.007105752430788415,0.0
3474,-0.10432139662026899,0.0
3475,0.04734751544401396,0.0
3476,-0.06696525416248059,0.0
3477,-0.059732109005286166,0.0
3478,-0.07732957102554877,0.0
3479,-0.08149202650398912,0.0
3480,0.3742616795948918,0.0
3481,4.0577198325381865,0.0
3482,6.570582298686195,0.0
3483,-1.2620112029137789,0.0
3484,-1.3969957723020865,0.0
3485,1.4499368717370678,0.0
3486,-0.8895668548021953,0.0
3487,0.24624124264860642,0.0
3488,-0.10767931325484378,0.0
3489,-0.0706298072380841,0.0
3490,-0.0018625251863260625,0.0
3491,-0.10229622321637413,0.0
3492,-0.035894586451067516,0.0
3493,-0.09044802045942157,0.0
3494,-0.05524287525983616,0.0
3495,0.00026561009034880775,0.0
3496,-0.008237355688411444,0.0
3497,0.0008498406299015373,0.0
3498,-0.02141849322108811,0.0
3499,0.0773360475884103,0.0
3500,0.393635641325674,0.0
3501,4.193908627402306,0.0
3502,6.595389581856612,0.0
3503,-1.112459309335432,0.0
3504,-1.349681450038385,0.0
3505,1.4367457464342026,0.0
3506,-0.816070822677813,0.0
3507,0.23827068773807664,0.0
3508,-0.00941637296680525,0.0
3509,-0.07928832866198621,0.0
3510,-0.04662031958754648,0.0
3511,-0.07143426760517826,0.0
3512,-0.08822061397121019,0.0
3513,-0.11134505455438841,0.0
3514,-0.05202327712794714,0.0
3515,-0.05971847859470632,0.0
3516,-0.15127723577266716,0.0
3517,-0.13716735500523086,0.0
3518,0.0014605353661541476,0.0
3519,-0.008208365025479294,0.0
3520,0.28731132419208044,0.0
3521,4.073055224723457,0.0
3522,6.563322882611938,0.0
3523,-1.2825264737254398,0.0
3524,-1.4247812349968216,0.0
3525,1.327752284619541,0.0
3526,-0.7398854625522966,0.0
3527,0.20568184301463138,0.0
3528,-0.01138523645434586,0.0
3529,-0.10229844413862423,0.0
3530,-0.03980553868270374,0.0
3531,-0.009417104235451612,0.0
3532,-0.14019686628309364,0.0
3533,-0.06266322620034412,0.0
3534,-0.1318780233809123,0.0
3535,-0.10195081758421363,0.0
3536,-0.06626822730487014,0.0
3537,-0.08224707172435881,0.0
3538,-0.030528265487889568,0.0
3539,-0.11084256824841761,0.0
3540,0.26384735004434756,0.0
3541,4.092619848060961,0.0
3542,6.485530808420372,0.0
3543,-1.3027760087912024,0.0
3544,-1.4991541501285697,0.0
3545,1.3198456644135566,0.0
3546,-0.8891189531390389,0.0
3547,0.24823957650955347,0.0
3548,-0.12095561918732808,0.0
3549,-0.08088872527343544,0.0
3550,0.04536443014415286,0.0
3551,0.10166548949208681,0.0
3552,0.004480079070936657,0.0
3553,0.06570089558716892,0.0
3554,-0.06592555959508223,0.0
3555,-0.07476438066247311,0.0
3556,-0.013277579463302519,0.0
3557,-0.01823061665071063,0.0
3558,-0.07347388422873624,0.0
3559,-0.07422813870367992,0.0
3560,0.44099833930578636,0.0
3561,3.995848480485654,0.0
3562,6.510048830065646,0.0
3563,-1.2113031190149421,0.0
3564,-1.4373200810993778,0.0
3565,1.3750422291230338,0.0
3566,-0.8944055839367725,0.0
3567,0.17000784295193042,0.0
3568,-0.014710737853093285,0.0
3569,0.03374279927842706,0.0
3570,0.01968390828935596,0.0
3571,-0.04694142441861722,0.0
3572,0.011686752971442938,0.0
3573,0.01686531145657885,0.0
3574,-0.09882553818439944,0.0
3575,-0.03997792005909143,0.0
3576,0.010385213335495509,0.0
3577,-0.07728385957039567,0.0
3578,0.08824185029476037,0.0
3579,-0.025630380439527464,0.0
3580,0.43494596154189163,0.0
3581,4.187157323879282,0.0
3582,6.590294640923723,0.0
3583,-1.2600599532723544,0.0
3584,-1.4075596578224414,0.0
3585,1.3000634296972438,0.0
3586,-0.8535732040473235,0.0
3587,0.1813436270960841,0.0
3588,-0.037713975603774784,0.0
3589,-0.06129496350852835,0.0
3590,-0.022963365839422014,0.0
3591,-0.09749143901371823,0.0
3592,-0.13676838925644877,0.0
3593,-0.08801500732513048,0.0
3594,-0.016562957569031138,0.0
3595,-0.0836344593137512,0.0
3596,-0.10821135923088424,0.0
3597,0.00232307544741088,0.0
3598,-0.03596634346597479,0.0
3599,-0.00887299175014597,0.0
3600,0.27075220381188747,0.0
3601,4.130391564780297,0.0
3602,6.4190125877932145,0.0
3603,-1.2907352228519358,0.0
3604,-1.5063148538257065,0.0
3605,1.3631219729209387,0.0
3606,-0.8886059073948603,0.0
3607,0.1940544859888142,0.0
3608,-0.11632197222582794,0.0
3609,-0.03181954801428684,0.0
3610,-0.025614894235431424,0.0
3611,-0.0038954258146102934,0.0
3612,-0.1478856751608292,0.0
3613,-0.05360402372406747,0.0
3614,0.030460901180264538,0.0
3615,-0.047088145665180096,0.0
3616,-0.014017944046903427,0.0
3617,0.027956881556242305,0.0
3618,0.08009288454764499,0.0
3619,-0.057096802086182535,0.0
3620,0.5522220102512135,0.0
3621,4.16808123230112,0.0
3622,6.582176248162618,0.0
3623,-1.1652494111094123,0.0
3624,-1.3083475410775027,0.0
3625,1.4217888598983361,0.0
3626,-0.7462131264978232,0.0
3627,0.3063579825045801,0.0
3628,0.059676041002613006,0.0
3629,-0.010249011386386276,0.0
3630,0.034743487963634086,0.0
3631,0.00241502944706707,0.0
3632,0.0019175442040390324,0.0
3633,-0.02793214010010171,0.0
3634,-0.043577293374175874,0.0
3635,-0.009449362067422067,0.0
3636,0.08028141896061,0.0
3637,-0.09797639868817856,0.0
3638,-0.013881690182610724,0.0
3639,-0.052347919733408195,0.0
3640,0.38294618529394775,0.0
3641,4.140346287971052,0.0
3642,6.569149273219358,0.0
3643,-1.2302562733119158,0.0
3644,-1.3378807119787623,0.0
3645,1.4390787913526997,0.0
3646,-0.7052973896711836,0.0
3647,0.2389029265412974,0.0
3648,0.01681359787845285,0.0
3649,0.030376040927867998,0.0
3650,0.026796481624585273,0.0
3651,-0.048388379372250115,0.0
3652,-0.013879537935184653,0.0
3653,0.015335261646611087,0.0
3654,0.057120134190307904,0.0
3655,0.04578030664366034,0.0
3656,0.06562825244421377,0.0
3657,-0.048811602811174984,0.0
3658,0.006947564285955624,0.0
3659,-0.00873742860827317,0.0
3660,0.5169778361193981,0.0
3661,4.103745413057071,0.0
3662,6.514800671683387,0.0
3663,-1.2577147287239445,0.0
3664,-1.3086939634651644,0.0
3665,1.3979440992495493,0.0
3666,-0.7690772428615783,0.0
3667,0.2922489497175576,0.0
3668,-0.044409938672321944,0.0
3669,0.025283096550168183,0.0
3670,0.05105759981964069,0.0
3671,0.018662782752132203,0.0
3672,0.06056785451758774,0.0
3673,-0.027431297125457613,0.0
3674,-0.08926221302180977,0.0
3675,-0.012935161973174625,0.0
3676,0.0382418258298851,0.0
3677,-0.031198693711335608,0.0
3678,-0.06239051343492641,0.0
3679,0.032651593859285254,0.0
3680,0.4086036419063856,0.0
3681,4.19308698893081,0.0
3682,6.546807261890076,0.0
3683,-1.2090497905032345,0.0
3684,-1.4054151453203865,0.0
3685,1.464051597787814,0.0
3686,-0.7521010011960054,0.0
3687,0.3316354125327632,0.0
3688,-0.0014264262529293664,0.0
3689,0.009431267879219789,0.0
3690,0.09841403565319937,0.0
3691,0.15056424607559343,0.0
3692,-0.025501339889781857,0.0
3693,0.055353121024875815,0.0
3694,0.13943371587672337,0.0
3695,0.04148849638677224,0.0
3696,0.1115361186213604,0.0
3697,0.07456806357091023,0.0
3698,0.001965273201645544,0.0
3699,0.049616541936057384,0.0
3700,0.49215939321711166,0.0
3701,4.196492090913295,0.0
3702,6.59021987038003,0.0
3703,-1.1947635258826015,0.0
3704,-1.2719500741435725,0.0
3705,1.453053264401487,0.0
3706,-0.7545016719626356,0.0
3707,0.20276327080460982,0.0
3708,-0.006515708722884548,0.0
3709,-0.06154117961851219,0.0
3710,0.0947428701291343,0.0
3711,0.07725302763673465,0.0
3712,0.027809779704849172,0.0
3713,0.01770791593928321,0.0
3714,0.100469401910796,0.0
3715,0.04107656986573697,0.0
3716,0.09892439932576261,0.0
3717,0.025555939709883055,0.0
3718,0.07452686056660893,0.0
3719,0.07418723378700055,0.0
3720,0.5254508596220719,0.0
3721,4.265180925922549,0.0
3722,6.606726442070208,0.0
3723,-1.2205178853262033,0.0
3724,-1.3330531058928619,0.0
3725,1.5246713084566408,0.0
3726,-0.5577674976297875,0.0
3727,0.28699922760443086,0.0
3728,-0.04480162166892892,0.0
3729,-0.06588233028042079,0.0
3730,0.10121673309739837,0.0
3731,-0.038498440702271736,0.0
3732,0.02773468241311621,0.0
3733,0.0014494057036130228,0.0
3734,0.09163828327815104,0.0
3735,0.041347377312717294,0.0
3736,-0.0421636690773342,0.0
3737,-0.021489183267536627,0.0
3738,0.010478934542654932,0.0
3739,0.025185419848626087,0.0
3740,0.5276846545607499,0.0
3741,4.208798666659016,0.0
3742,6.5996594233128825,0.0
3743,-1.2402872150105184,0.0
3744,-1.3225182343729152,0.0
3745,1.4216736673584007,0.0
3746,-0.6846706765787752,0.0
3747,0.27619995788709134,0.0
3748,0.019234928880396743,0.0
3749,0.16141177231942705,0.0
3750,-0.03480701068322731,0.0
3751,0.08674141857555569,0.0
3752,-0.010607782753980291,0.0
3753,0.009652651570476498,0.0
3754,0.07088489283997293,0.0
3755,0.06691799124920415,0.0
3756,-0.03828619023154458,0.0
3757,-0.06470518666550623,0.0
3758,-0.028011797946891126,0.0
3759,-0.036478643224781705,0.0
3760,0.39700827950498063,0.0
3761,4.311314468492764,0.0
3762,6.527462448250108,0.0
3763,-1.1983486893499395,0.0
3764,-1.3182679115208122,0.0
3765,1.4436614013429732,0.0
3766,-0.8946168940193718,0.0
3767,0.25167798579877126,0.0
3768,-0.01472643903512405,0.0
3769,0.007286116735874886,0.0
3770,0.029493211485250827,0.0
3771,0.028867979999843675,0.0
3772,0.05091666666338249,0.0
3773,0.038976233172946774,0.0
3774,0.06665834702329365,0.0
3775,0.027723124484913285,0.0
3776,0.028366824802605738,0.0
3777,0.09998932547462933,0.0
3778,0.10097064602542953,0.0
3779,-0.001980821867254609,0.0
3780,0.46703692273136116,0.0
3781,4.236606860931674,0.0
3782,6.5603336673957235,0.0
3783,-1.206527557896941,0.0
3784,-1.29209297481076,0.0
3785,1.4301520751582955,0.0
3786,-0.770824725305732,0.0
3787,0.2813881779206762,0.0
3788,0.018477002520357475,0.0
3789,-0.005336720904542425,0.0
3790,0.06333817646014361,0.0
3791,-0.0259939856572626,0.0
3792,-0.02783219532674098,0.0
3793,0.07967895230352955,0.0
3794,0.03042228702383435,0.0
3795,0.10931602622698079,0.0
3796,0.000942624828101174,0.0
3797,-0.03330634637953099,0.0
3798,0.006732044520896277,0.0
3799,0.12397482792401421,0.0
3800,0.4237783268481865,0.0
3801,4.246539730609189,0.0
3802,6.6381500700172476,0.0
3803,-1.1864117357537032,0.0
3804,-1.3499156327854922,0.0
3805,1.508530905635305,0.0
3806,-0.6827206929579526,0.0
3807,0.24363455051660765,0.0
3808,0.030119646958632756,0.0
3809,0.051313280122726644,0.0
3810,0.07013215376099696,0.0
3811,0.09797555199068081,0.0
3812,0.09292206599914714,0.0
3813,0.09595576165276179,0.0
3814,-0.02784397296458689,0.0
3815,0.03822148674924571,0.0
3816,0.028751978991234085,0.0
3817,0.027971801084198625,0.0
3818,0.03866401469508855,0.0
3819,0.06745689983039779,0.0
3820,0.5575350130934789,0.0
3821,4.250356297574011,0.0
3822,6.5102794902081484,0.0
3823,-1.2543246407280708,0.0
3824,-1.2623787460836373,0.0
3825,1.4815722983944097,0.0
3826,-0.7395558944854072,0.0
3827,0.440909152782752,0.0
3828,0.06909586288617713,0.0
3829,0.05972937032637199,0.0
3830,0.03675548980683653,0.0
3831,0.06837084977354013,0.0
3832,-0.013733274106803826,0.0
3833,0.11198482713878213,0.0
3834,0.09518570514310175,0.0
3835,0.0922300418182047,0.0
3836,-0.007802456657002459,0.0
3837,0.0767505751690202,0.0
3838,0.01855960723445866,0.0
3839,0.0687481496890215,0.0
3840,0.5437932241419574,0.0
3841,4.284015406371263,0.0
3842,6.584785129589299,0.0
3843,-1.2464028067821467,0.0
3844,-1.2715443013068297,0.0
3845,1.3621145297248274,0.0
3846,-0.7255922064215828,0.0
3847,0.2773599638569109,0.0
3848,0.00950167104862416,0.0
3849,-0.018027161861291822,0.0
3850,0.07805523233539874,0.0
3851,0.08254738135411581,0.0
3852,0.05634162703095112,0.0
3853,0.08657270677811033,0.0
3854,0.060616953098724675,0.0
3855,0.1594771039235015,0.0
3856,0.02555603580530713,0.0
3857,-0.022368182422597423,0.0
3858,0.06588695829859131,0.0
3859,0.12244973777705379,0.0
3860,0.5101613211513014,0.0
3861,4.204102804803635,0.0
3862,6.572193944787779,0.0
3863,-1.2904565474314194,0.0
3864,-1.1825721997024192,0.0
3865,1.4956819261134007,0.0
3866,-0.7175076172360711,0.0
3867,0.30487840062859345,0.0
3868,-0.014001101105799274,0.0
3869,0.09058469627613971,0.0
3870,0.08592756820210322,0.0
3871,0.04578108046054146,0.0
3872,0.029039349375612138,0.0
3873,0.007031091398950112,0.0
3874,0.03649275372818762,0.0
3875,0.07021772349394588,0.0
3876,0.042955741781568274,0.0
3877,0.11693976629839246,0.0
3878,0.034440650473332675,0.0
3879,0.12340887406179876,0.0
3880,0.5343868997446429,0.0
3881,4.2865612368944355,0.0
3882,6.597911442973607,0.0
3883,-1.3414350325972664,0.0
3884,-1.2398849652637987,0.0
3885,1.4373475071749398,0.0
3886,-0.7935158514458736,0.0
3887,0.32428395835297275,0.0
3888,-0.08459076904995974,0.0
3889,-0.0075176193786166134,0.0
3890,0.07709571318214893,0.0
3891,0.06594395686140397,0.0
3892,0.06746213064498532,0.0
3893,0.07071196308762114,0.0
3894,0.02442735898437748,0.0
3895,0.15395686421366167,0.0
3896,0.05807833812185481,0.0
3897,0.003600005407009943,0.0
3898,0.036678765143358154,0.0
3899,0.08623575981261498,0.0
3900,0.5352295511673276,0.0
3901,4.2345593180700645,0.0
3902,6.555219558015514,0.0
3903,-1.175376861987104,0.0
3904,-1.254624074094086,0.0
3905,1.4096589498753715,0.0
3906,-0.6734769442489696,0.0
3907,0.3101972784294348,0.0
3908,0.060781628139062904,0.0
3909,0.049250841714630955,0.0
3910,0.10554544828981621,0.0
3911,0.08035421528767796,0.0
3912,0.012288663925465473,0.0
3913,0.11537269672264744,0.0
3914,-0.005555640755307054,0.0
3915,0.15672318281491926,0.0
3916,0.05196344565525332,0.0
3917,0.10094940206554878,0.0
3918,0.0825563103191279,0.0
3919,0.05371764520000859,0.0
3920,0.44648871508633925,0.0
3921,4.270322646872338,0.0
3922,6.577154129467944,0.0
3923,-1.2143273819194398,0.0
3924,-1.2022815522014951,0.0
3925,1.4059318677342802,0.0
3926,-0.6941357371031747,0.0
3927,0.3363427328990367,0.0
3928,0.04314596250854002,0.0
3929,0.10661107638357813,0.0
3930,0.05016537515146558,0.0
3931,0.06387481405600684,0.0
3932,0.09188920757587912,0.0
3933,-0.04906808602232274,0.0
3934,0.04736071015297978,0.0
3935,0.03564452001712285,0.0
3936,0.08722764868272347,0.0
3937,0.12955109855639768,0.0
3938,0.10764064802388931,0.0
3939,-0.020840959334120453,0.0
3940,0.49117101097588434,0.0
3941,4.2271796317939305,0.0
3942,6.5470638356701025,0.0
3943,-1.3296756101325826,0.0
3944,-1.348286271991474,0.0
3945,1.3684019188786494,0.0
3946,-0.7885641294619931,0.0
3947,0.31223883685607345,0.0
3948,0.05105449355748429,0.0
3949,-0.09639234680092897,0.0
3950,0.020497176565981726,0.0
3951,0.01761796981037685,0.0
3952,0.06857673604969686,0.0
3953,0.10222903862836594,0.0
3954,0.008357897307516418,0.0
3955,0.09330388996535188,0.0
3956,-0.0003641461062624113,0.0
3957,0.016459421833019357,0.0
3958,0.061396732097027756,0.0
3959,0.04440383549203233,0.0
3960,0.48582881820526175,0.0
3961,4.151873909126576,0.0
3962,6.645153914883194,0.0
3963,-1.2082443917382675,0.0
3964,-1.1998946606068606,0.0
3965,1.3807611388134347,0.0
3966,-0.6884886661671218,0.0
3967,0.2607196919826971,0.0
3968,0.0459788779657929,0.0
3969,0.08475178547574136,0.0
3970,0.10047180183254939,0.0
3971,0.02379730119401199,0.0
3972,0.03153033729763392,0.0
3973,-0.007989983107028704,0.0
3974,0.06362738013863675,0.0
3975,0.010889420061246494,0.0
3976,0.01136221170505712,0.0
3977,0.03726838520839349,0.0
3978,-0.0005296999759013439,0.0
3979,0.0317869538611467,0.0
3980,0.5237725031840699,0.0
3981,4.2654295681489875,0.0
3982,6.525946677303867,0.0
3983,-1.3971624841741481,0.0
3984,-1.2561272350214492,0.0
3985,1.4587581109940961,0.0
3986,-0.7507423671825448,0.0
3987,0.25882793985769526,0.0
3988,0.01655584909916965,0.0
3989,0.05337828110498348,0.0
3990,0.04789989116855957,0.0
3991,-0.01956230656477473,0.0
3992,0.06308265358104234,0.0
3993,-0.09355421938450648,0.0
3994,-0.0483825668310667,0.0
3995,0.012365671232151142,0.0
3996,0.023776901594745693,0.0
3997,0.10845924643526769,0.0
3998,0.009210050026663422,0.0
3999,0.011629361209921939,0.0
4000,0.5162049196361365,0.0
4001,4.226207818754598,0.0
4002,6.486180052306823,0.0
4003,-1.199714188246793,0.0
4004,-1.1564886777167884,0.0
4005,1.4108108851292436,0.0
4006,-0.7869585532590069,0.0
4007,0.26079728534837077,0.0
4008,-0.04147779010491425,0.0
4009,0.03400719965844494,0.0
4010,0.05339804787977735,0.0
4011,0.00840206769166708,0.0
4012,0.023698910461386013,0.0
4013,0.0778016116103881,0.0
4014,0.072146899893258,0.0
4015,0.06478391809479118,0.0
4016,-0.0463202393990179,0.0
4017,0.02768975435640374,0.0
4018,-0.07422755312730324,0.0
4019,-0.021132863616831442,0.0
4020,0.49191798475652243,0.0
4021,4.175689058907486,0.0
4022,6.4948282708599985,0.0
4023,-1.2838280467881662,0.0
4024,-1.346735179212951,0.0
4025,1.3437838594474332,0.0
4026,-0.7578001324161329,0.0
4027,0.11942980083986016,0.0
4028,-0.034170020867453604,0.0
4029,-0.06442827694575728,0.0
4030,0.01588171445260364,0.0
4031,-0.035400653199197135,0.0
4032,0.08955384689750716,0.0
4033,-0.022646752991615452,0.0
4034,0.10190613832348891,0.0
4035,-0.02384151584290005,0.0
4036,-0.05931952257131147,0.0
4037,0.008372530374018926,0.0
4038,-0.016774939746895676,0.0
4039,-0.06600489602227443,0.0
4040,0.46812610517716446,0.0
4041,4.253185303805798,0.0
4042,6.467891536858361,0.0
4043,-1.3712292336686003,0.0
4044,-1.3629432496010443,0.0
4045,1.3321963735905396,0.0
4046,-0.8387886289807953,0.0
4047,0.14132235050409128,0.0
4048,-0.0890117437985969,0.0
4049,-0.16700919749936324,0.0
4050,-0.06216392150261244,0.0
4051,0.0009943391796765622,0.0
4052,-0.11564731851102611,0.0
4053,-0.015260628252992126,0.0
4054,-0.042567135632254983,0.0
4055,-0.15341005772040459,0.0
4056,0.007280866239608455,0.0
4057,-0.05717079641717098,0.0
4058,0.04567106859829141,0.0
4059,-0.042801833449821844,0.0
4060,0.4019754889332267,0.0
4061,4.226546752416733,0.0
4062,6.457694124106323,0.0
4063,-1.3862235266265024,0.0
4064,-1.188733899937716,0.0
4065,1.4342698877740343,0.0
4066,-0.799338575647585,0.0
4067,0.18558770351772907,0.0
4068,0.013205960910585901,0.0
4069,-0.1289174295359932,0.0
4070,-0.012974004304334569,0.0
4071,0.03769757180060948,0.0
4072,0.012892817749833514,0.0
4073,-0.022668954428164204,0.0
4074,0.05063934208039654,0.0
4075,0.004496068186141728,0.0
4076,-0.02797286163574908,0.0
4077,0.09569646071229583,0.0
4078,-0.018964579783179225,0.0
4079,-0.014346522057222543,0.0
4080,0.5454899243896539,0.0
4081,4.185781225351514,0.0
4082,6.573177860283321,0.0
4083,-1.276872079604345,0.0
4084,-1.3079473258798047,0.0
4085,1.4136107284370532,0.0
4086,-0.8306268159569818,0.0
4087,0.24222518118911796,0.0
4088,0.056549820295142536,0.0
4089,-0.027602067013683954,0.0
4090,-0.02606786585319009,0.0
4091,0.08529021973997475,0.0
4092,-0.0029172582383932043,0.0
4093,-0.029309306364667276,0.0
4094,-0.04492788308951875,0.0
4095,0.04179235647480053,0.0
4096,-0.04003767099825389,0.0
4097,-0.046635897922435124,0.0
4098,-0.04972162254363968,0.0
4099,0.035975036721479524,0.0
4100,0.46544988070277743,0.0
4101,4.2817739921941325,0.0
4102,6.535765654730539,0.0
4103,-1.3799471624754827,0.0
4104,-1.191209462783601,0.0
4105,1.4086733395482331,0.0
4106,-0.7177166292140582,0.0
4107,0.2835057186859121,0.0
4108,-0.043918746153729385,0.0
4109,-0.008476277066422844,0.0
4110,-0.0007439431801899536,0.0
4111,0.0381805905783839,0.0
4112,0.09729178706335531,0.0
4113,0.013700439458348649,0.0
4114,0.005961141271897959,0.0
4115,0.07965392265453831,0.0
4116,0.014009280148454827,0.0
4117,0.07464066267064366,0.0
4118,-0.0167882348095763,0.0
4119,-0.0473365145339003,0.0
4120,0.4071893604930298,0.0
4121,4.242402312247626,0.0
4122,6.463703620841499,0.0
4123,-1.333774354504131,0.0
4124,-1.2982124440678067,0.0
4125,1.3780958810951525,0.0
4126,-0.7825819398614158,0.0
4127,0.20226137855687285,0.0
4128,-0.05809241726442348,0.0
4129,-0.007142313979162575,0.0
4130,-0.1172443881481395,0.0
4131,0.039703364535046484,0.0
4132,-0.02686539204941422,0.0
4133,-0.01890381946178856,0.0
4134,-0.009593313442857332,0.0
4135,-0.010001223293437578,0.0
4136,-0.025613506429417968,0.0
4137,-0.01617085655605631,0.0
4138,-0.0035032062821623387,0.0
4139,0.031021303589295363,0.0
4140,0.4115156320789449,0.0
4141,4.178428394848152,0.0
4142,6.5146461246599205,0.0
