timestamp,value-0,is_anomaly
0,0.1742021371175343,0.0
1,4.482317954349887,0.0
2,4.9653387795651165,0.0
3,-3.0142135783610815,0.0
4,1.4973652811326856,0.0
5,-0.6913738464495588,0.0
6,0.30470151048919236,0.0
7,-0.13230898218018075,0.0
8,0.03987912420723844,0.0
9,0.07557636741499515,0.0
10,-0.00832879740464492,0.0
11,0.06933627378560467,0.0
12,0.09770233764566352,0.0
13,0.0463036909270413,0.0
14,-0.03779094612869163,0.0
15,0.011482368699069247,0.0
16,-0.012172874978450121,0.0
17,0.9379148588112787,0.0
18,6.424915412545558,0.0
19,1.6489027301865913,0.0
20,-1.9477594224414565,0.0
21,1.1869720882308885,0.0
22,-0.6371990045892377,0.0
23,0.233014294599655,0.0
24,-0.14126280408059347,0.0
25,0.171253998321548,0.0
26,-0.0671266581097927,0.0
27,-0.0004437455675950115,0.0
28,-0.020125195386469084,0.0
29,0.023479552887196845,0.0
30,0.04529163149534864,0.0
31,0.02614991390324633,0.0
32,0.03465929638478415,0.0
33,0.08714991264472259,0.0
34,2.5645602228497117,0.0
35,6.893133894082419,0.0
36,-1.7297734631493518,0.0
37,0.2032647280586344,0.0
38,0.11232845623722928,0.0
39,-0.12298437320410144,0.0
40,-0.14316424646106146,0.0
41,0.018149849714673857,0.0
42,-0.04841178147529711,0.0
43,-0.04174641661653738,0.0
44,0.06625434576291049,0.0
45,-0.024537684384121877,0.0
46,0.013746219867080606,0.0
47,-0.06992563651474117,0.0
48,-0.1599897148280719,0.0
49,-0.060628988493164025,0.0
50,0.14462229844681618,0.0
51,4.619868662911746,0.0
52,4.911822458739729,0.0
53,-2.9393867685572084,0.0
54,1.550506254231894,0.0
55,-0.7683109572574998,0.0
56,0.26870788433225545,0.0
57,-0.15520829731555374,0.0
58,0.04285888019038793,0.0
59,-0.020144399166533666,0.0
60,-0.11574876284784034,0.0
61,-0.0007798919258729664,0.0
62,0.0726404381202383,0.0
63,-0.009959027183477461,0.0
64,-0.04731560357700546,0.0
65,-0.0834243515116535,0.0
66,-0.0754101377487858,0.0
67,0.9615252043084003,0.0
68,6.401456850855381,0.0
69,1.4151029910512303,0.0
70,-2.0338687063706686,0.0
71,1.1778082396173264,0.0
72,-0.6594991017611405,0.0
73,0.20831379129274322,0.0
74,-0.23224577070475638,0.0
75,-0.1783003176747937,0.0
76,-0.018152361673582494,0.0
77,-0.15166519024753153,0.0
78,-0.08548356795707558,0.0
79,-0.05003300168321306,0.0
80,-0.00792725447474009,0.0
81,-0.07267106466023981,0.0
82,-0.09059207861555982,0.0
83,-0.04063131801725034,0.0
84,2.453921462752828,0.0
85,6.771414301441337,0.0
86,-1.8054870980721869,0.0
87,0.02962080130633049,0.0
88,0.1248114052977606,0.0
89,-0.07889776902846074,0.0
90,0.03285858202079421,0.0
91,-0.06591529497845695,0.0
92,0.0028214641691615278,0.0
93,-0.03793693615423534,0.0
94,-0.01855504986710175,0.0
95,-0.04425501345798235,0.0
96,0.026045557853460348,0.0
97,-0.07265800407022127,0.0
98,0.017896411445978498,0.0
99,0.0884661360297952,0.0
100,0.1694045142535299,0.0
101,4.534696043712199,0.0
102,4.8785286293072545,0.0
103,-3.018902049346262,0.0
104,1.4489055924835341,0.0
105,-0.75312312003478,0.0
106,0.16811953394497617,0.0
107,-0.1700995861783383,0.0
108,-0.07831134787063902,0.0
109,-0.13240096171694096,0.0
110,-0.1352865720621258,0.0
111,-0.11954720993035423,0.0
112,-0.026519300655517233,0.0
113,-0.07993389390168149,0.0
114,-0.10098623064343501,0.0
115,-0.11014498746449233,0.0
116,-0.1460296112508497,0.0
117,0.9568111215629365,0.0
118,6.343464393287892,0.0
119,1.5048043581987907,0.0
120,-2.0109810314409122,0.0
121,1.334708248842513,0.0
122,-0.6552201012592158,0.0
123,0.30643282359031376,0.0
124,-0.06938678280779689,0.0
125,-0.04321161403083872,0.0
126,-0.10076888171275855,0.0
127,0.08303311047624097,0.0
128,0.02712472811292212,0.0
129,-0.03277259052648504,0.0
130,0.011186733326433537,0.0
131,0.022708590369433346,0.0
132,0.03761172669823648,0.0
133,0.050237262883929636,0.0
134,2.4429700461140533,0.0
135,6.828944877987879,0.0
136,-1.841039753843987,0.0
137,0.085695937473698,0.0
138,0.08347975848808946,0.0
139,-0.1785216605392161,0.0
140,-0.009981723270391828,0.0
141,-0.11129374288735819,0.0
142,-0.02539507534411257,0.0
143,-0.054700888564132424,0.0
144,-0.14230834126556074,0.0
145,-0.09881149381340971,0.0
146,-0.13034646822790447,0.0
147,-0.01026644521414518,0.0
148,-0.04653140324288886,0.0
149,-0.012512623869826413,0.0
150,0.1596015316223704,0.0
151,4.5734533829607695,0.0
152,4.923236754719933,0.0
153,-3.055165787118482,0.0
154,1.4991922365563344,0.0
155,-0.7560526362955557,0.0
156,0.25746699360017294,0.0
157,-0.09464210099750753,0.0
158,0.11359469168350182,0.0
159,-0.04296466388631423,0.0
160,0.05482870719386254,0.0
161,0.05586778675403,0.0
162,0.047375104128531874,0.0
163,0.006055371687446421,0.0
164,-0.0473829669726545,0.0
165,0.035865589858054686,0.0
166,-0.11578493329440726,0.0
167,1.0233836478847216,0.0
168,6.374602354879095,0.0
169,1.4171910661559046,0.0
170,-1.9540614384218344,0.0
171,1.165913991874984,0.0
172,-0.6803792806754484,0.0
173,0.2438746654429665,0.0
174,-0.1282672173745458,0.0
175,0.013753703913687111,0.0
176,-0.07553146804361748,0.0
177,0.009912067618127166,0.0
178,0.020327704831985875,0.0
179,0.04214539216553533,0.0
180,0.028198667300803025,0.0
181,0.04960733907536389,0.0
182,0.012826929625989969,0.0
183,0.02215728902830231,0.0
184,2.558874165953918,0.0
185,6.81984560644982,0.0
186,-1.860432225004859,0.0
187,0.21025667340427923,0.0
188,0.07176379755915197,0.0
189,-0.02968402660224373,0.0
190,-0.03030656030266459,0.0
191,0.0037934950272317525,0.0
192,-0.07550958326841296,0.0
193,-0.044161564249888055,0.0
194,-0.1645322898621083,0.0
195,-0.0805703293026879,0.0
196,-0.06060290692318721,0.0
197,-0.035998232826802215,0.0
198,-0.07607188334411548,0.0
199,-0.06630507842810376,0.0
200,0.23061943525422077,0.0
201,4.619980657169282,0.0
202,4.967233100840153,0.0
203,-2.9810689247469258,0.0
204,1.4487105070538338,0.0
205,-0.7285832777505306,0.0
206,0.2305372647472103,0.0
207,-0.10612104830339121,0.0
208,-0.0524097448346373,0.0
209,-0.0646044009751258,0.0
210,-0.01092129148513426,0.0
211,-0.1469441284792005,0.0
212,0.01326770880882705,0.0
213,-0.006056597836164813,0.0
214,-0.04341281331875814,0.0
215,-0.02503227078230656,0.0
216,-0.029217963879921312,0.0
217,0.9904868111155356,0.0
218,6.4550411206722815,0.0
219,1.439650240330292,0.0
220,-1.90422286526737,0.0
221,1.2914405320069458,0.0
222,-0.6612702537366246,0.0
223,0.24880810243225093,0.0
224,-0.08203713807669019,0.0
225,0.11143633540554469,0.0
226,-0.051445826683455306,0.0
227,0.059235958676559855,0.0
228,0.0048396867893303365,0.0
229,0.07398427523978082,0.0
230,0.004890647419085684,0.0
231,0.012307593611802201,0.0
232,0.03490370138558908,0.0
233,0.08946017276439058,0.0
234,2.4868182585098717,0.0
235,6.794272257645507,0.0
236,-1.7958260551855707,0.0
237,0.14809314543491547,0.0
238,0.11111234404435355,0.0
239,-0.1729045167550005,0.0
240,0.03967294362579975,0.0
241,0.05994369139105593,0.0
242,0.05772815008137983,0.0
243,0.020419944519435074,0.0
244,0.021626462645274864,0.0
245,0.0733852447072428,0.0
246,0.06393249287208419,0.0
247,0.08926444921804493,0.0
248,0.08341164853333499,0.0
249,0.06547018339988292,0.0
250,0.25500421191533396,0.0
251,4.73774387000014,0.0
252,4.975086363290794,0.0
253,-3.0126276859975816,0.0
254,1.6337208636424996,0.0
255,-0.7104733852719972,0.0
256,0.4003891276666526,0.0
257,-0.14675050276766718,0.0
258,0.0023392332168809538,0.0
259,0.021531391264285795,0.0
260,0.044117223739490716,0.0
261,-0.03410718409342131,0.0
262,0.029194478655402135,0.0
263,0.10152700390315494,0.0
264,0.031898622630535375,0.0
265,0.07204114354647673,0.0
266,0.033885205919827556,0.0
267,1.1733075304860927,0.0
268,6.54004252225016,0.0
269,1.4186254367074052,0.0
270,-1.8714460903681167,0.0
271,1.2578316960430482,0.0
272,-0.5076060499690906,0.0
273,0.37038454327868503,0.0
274,-0.051152442823389974,0.0
275,0.146210361806509,0.0
276,0.010363941906799644,0.0
277,-0.018696519485416098,0.0
278,0.05007980600213131,0.0
279,0.06261946284748744,0.0
280,0.026046721986095096,0.0
281,0.09840240787873655,0.0
282,0.07981568557730775,0.0
283,0.14306985676583608,0.0
284,2.5704124615606525,0.0
285,6.988146119041425,0.0
286,-1.8032656804586853,0.0
287,0.4242423671814142,0.0
288,0.1327137503422383,0.0
289,0.03401227398660464,0.0
290,0.12290412295225026,0.0
291,0.09892163137470981,0.0
292,0.1532403699474999,0.0
293,0.14463946951096057,0.0
294,0.05596449257966821,0.0
295,0.07386584066317702,0.0
296,0.053180978520646606,0.0
297,0.10322450985339623,0.0
298,0.136157046189137,0.0
299,0.1803534071706949,0.0
300,0.3620932021951826,0.0
301,4.769251841991758,0.0
302,4.894569453623174,0.0
303,-2.9979826890622197,0.0
304,1.6770325041384144,0.0
305,-0.7758149876921796,0.0
306,0.3109238743005181,0.0
307,-0.11559093576725388,0.0
308,0.050621594417194896,0.0
309,0.11220262276654205,0.0
310,0.0056217163528239945,0.0
311,-0.016138333271554978,0.0
312,0.015808130332487763,0.0
313,0.05562785632392911,0.0
314,-0.01793405168868506,0.0
315,0.09387704436271915,0.0
316,0.02723136454211409,0.0
317,1.07092059316797,0.0
318,6.556538895306282,0.0
319,1.503139751366869,0.0
320,-1.771384176361869,0.0
321,1.3108040262872693,0.0
322,-0.49102302124081015,0.0
323,0.3676586423885284,0.0
324,-0.013575854944765237,0.0
325,0.06504846912543097,0.0
326,0.11623687179895253,0.0
327,0.11419074530219435,0.0
328,0.0161823356604677,0.0
329,0.14160735972776406,0.0
330,0.033033141617188316,0.0
331,0.08716085554217426,0.0
332,0.08712684364223214,0.0
333,0.0899601658444533,0.0
334,2.6715281982472994,0.0
335,6.95365820065769,0.0
336,-1.8357790351148586,0.0
337,0.29997834145426144,0.0
338,0.22597736202385119,0.0
339,-0.09141523854359933,0.0
340,0.12092186010860459,0.0
341,0.09578735235752064,0.0
342,0.09054536016666616,0.0
343,0.05295993013551236,0.0
344,0.07911544988401825,0.0
345,0.10519093573615565,0.0
346,0.0687473307816002,0.0
347,0.05424971981295889,0.0
348,0.02793349469380741,0.0
349,0.09761533240696615,0.0
350,0.39289873750253346,0.0
351,4.751103625887282,0.0
352,4.901549333530726,0.0
353,-2.8682156013677242,0.0
354,1.5974619483795387,0.0
355,-0.5806229494780815,0.0
356,0.39967578056203784,0.0
357,-0.14215876684083897,0.0
358,0.10156976124875583,0.0
359,0.08629265045895412,0.0
360,0.17086684411117808,0.0
361,0.05174245318750728,0.0
362,0.07431194376869113,0.0
363,0.04746537048608341,0.0
364,0.06909173587540658,0.0
365,0.033474392450610416,0.0
366,0.045255992437073046,0.0
367,1.1654549075802567,0.0
368,6.560726130074773,0.0
369,1.478922571244488,0.0
370,-1.8241139561365418,0.0
371,1.3064386047239125,0.0
372,-0.6744486087159886,0.0
373,0.3512857000789592,0.0
374,-0.03650817192129695,0.0
375,0.049548230690202935,0.0
376,0.019177121916363907,0.0
377,-0.010153707582526846,0.0
378,-0.012348119349954187,0.0
379,-0.02531514006198584,0.0
380,-0.04742355922015272,0.0
381,0.005218215586347658,0.0
382,0.03295709144429712,0.0
383,0.09017348964073343,0.0
384,2.597793009293373,0.0
385,6.8346505062508145,0.0
386,-1.8570309247925318,0.0
387,0.24113525320492366,0.0
388,0.13306579539228838,0.0
389,-0.10504512262672892,0.0
390,0.05508519985592743,0.0
391,-0.008663583671914853,0.0
392,-0.018746935724467152,0.0
393,-0.0056218195612899305,0.0
394,-0.019368213476363676,0.0
395,0.06243765649712781,0.0
396,-0.028727116112566668,0.0
397,0.09337330483349152,0.0
398,0.0015637783851656303,0.0
399,-0.058245494227375585,0.0
400,0.28369217749014763,0.0
401,4.610573031566875,0.0
402,4.824393627771999,0.0
403,-3.010429197351533,0.0
404,1.511114372807439,0.0
405,-0.676849682867039,0.0
406,0.3691793200508843,0.0
407,-0.11449998126652257,0.0
408,0.05597729290451147,0.0
409,-0.1027914829041019,0.0
410,0.013526313132006114,0.0
411,0.00997344414915726,0.0
412,0.029020969053002124,0.0
413,-0.039231828809270536,0.0
414,-0.011003704384439324,0.0
415,-0.08437681891905024,0.0
416,-0.07326214094365133,0.0
417,1.019892230220845,0.0
418,6.5513431643620175,0.0
419,1.2870537627114091,0.0
420,-1.8893469180759108,0.0
421,1.1930164694785075,0.0
422,-0.6370652604348089,0.0
423,0.31177423669222437,0.0
424,-0.15353439929280682,0.0
425,-0.09063473370779493,0.0
426,-0.0890008215024111,0.0
427,-0.012815419443273749,0.0
428,-0.025338857999730187,0.0
429,-0.013672658687092007,0.0
430,0.022655659461693872,0.0
431,0.06715533865555612,0.0
432,-0.001914899860657262,0.0
433,0.020486992749513586,0.0
434,2.674566643250698,0.0
435,6.884155204293961,0.0
436,-1.844488538125425,0.0
437,0.4214550445503264,0.0
438,0.19034976834236497,0.0
439,-0.1521563691057301,0.0
440,0.11426308292064158,0.0
441,0.10496644239573874,0.0
442,-0.053589410646207675,0.0
443,0.0634630377518467,0.0
444,-0.0025338965444481523,0.0
445,-0.06502183594782712,0.0
446,-0.06280305019042623,0.0
447,-0.08846726039913698,0.0
448,-0.0539343606191247,0.0
449,-0.010347267165163971,0.0
450,0.26831362037221435,0.0
451,4.605813944872477,0.0
452,4.757369976126137,0.0
453,-2.98208821350773,0.0
454,1.6333302580721805,0.0
455,-0.7483532613858102,0.0
456,0.3262753568622651,0.0
457,-0.18670392078735895,0.0
458,0.05264776524139416,0.0
459,0.007917130028977582,0.0
460,0.046093039685740564,0.0
461,0.06473079730783113,0.0
462,0.05810136901178182,0.0
463,0.1361786221640622,0.0
464,-0.03516962886209916,0.0
465,-0.1205484853848344,0.0
466,0.010610481399952555,0.0
467,1.0498468703464228,0.0
468,6.552454434903433,0.0
469,1.333700037741881,0.0
470,-1.8297259959664482,0.0
471,1.2423526451228937,0.0
472,-0.6574915672001715,0.0
473,0.19422758304225413,0.0
474,-0.08958637296803422,0.0
475,-0.05181299412716317,0.0
476,-0.04439983764123705,0.0
477,-0.020459804060383162,0.0
478,-0.036817528316013245,0.0
479,-0.059680852307294974,0.0
480,0.04036181476972196,0.0
481,0.10464346447864686,0.0
482,0.1691997714878071,0.0
483,0.13310822020969906,0.0
484,2.585972068073916,0.0
485,6.931190773031036,0.0
486,-1.884091693902379,0.0
487,0.29751272238674553,0.0
488,0.19989332195341827,0.0
489,-0.03297165733156518,0.0
490,0.03250550253436075,0.0
491,0.0806268851725423,0.0
492,0.07989798540120345,0.0
493,0.018449459422176354,0.0
494,-0.10257714301008569,0.0
495,0.0555705410230114,0.0
496,0.030220109552911694,0.0
497,0.024775490762911793,0.0
498,0.0426908597958691,0.0
499,-0.003917357248859162,0.0
500,0.3803450491310444,0.0
501,4.788555094481382,0.0
502,4.8474521139971065,0.0
503,-2.9422779522666858,0.0
504,1.4934558977638188,0.0
505,-0.746502661145982,0.0
506,0.3420752280849759,0.0
507,-0.13786418045452245,0.0
508,0.05193900300294585,0.0
509,-0.019326245697202857,0.0
510,0.0134723518188367,0.0
511,0.09907229075523755,0.0
512,0.011409724234225087,0.0
513,-0.005709375428888483,0.0
514,-0.02376882741527102,0.0
515,0.007713013004555522,0.0
516,-0.004407634518389434,0.0
517,0.9325860882146889,0.0
518,6.465675609326289,0.0
519,1.3850959539716707,0.0
520,-1.916837738479486,0.0
521,1.1767635254134363,0.0
522,-0.6121450701621064,0.0
523,0.24141277932896998,0.0
524,-0.08692097282964241,0.0
525,0.025663415001155248,0.0
526,-0.04559814940592424,0.0
527,0.037533235515181854,0.0
528,0.03888185495135848,0.0
529,0.06488418108982372,0.0
530,0.06952985561230401,0.0
531,0.0937350087274755,0.0
532,0.043484956726357465,0.0
533,0.07780584456967962,0.0
534,2.72065144896949,0.0
535,6.843560538259721,0.0
536,-1.857093642354057,0.0
537,0.39798698727733073,0.0
538,0.018144028130867393,0.0
539,-0.08359387224476401,0.0
540,0.043454070151156,0.0
541,-0.0005508976009644126,0.0
542,-0.0054570705838288755,0.0
543,0.052384043900699936,0.0
544,0.024158498130117577,0.0
545,0.09957072731416533,0.0
546,0.08382656319367277,0.0
547,0.058198292904214924,0.0
548,0.05469541597463031,0.0
549,0.045530698007817345,0.0
550,0.4137797659187252,0.0
551,4.756351163055511,0.0
552,4.919979309223146,0.0
553,-2.9892808090831524,0.0
554,1.5905128595163218,0.0
555,-0.7773611566414919,0.0
556,0.3375097915269355,0.0
557,0.017070746687516333,0.0
558,0.05042581459364065,0.0
559,0.023024289874067173,0.0
560,-0.012538035075329952,0.0
561,-0.0002878405116708508,0.0
562,0.05496510257284675,0.0
563,-0.04508185798629619,0.0
564,0.021241682496532643,0.0
565,-0.035227190219755934,0.0
566,0.11103896966811508,0.0
567,1.083160533701872,0.0
568,6.509730690505718,0.0
569,1.3382991178569732,0.0
570,-1.7304615331018098,0.0
571,1.2174356357779086,0.0
572,-0.5617484921181038,0.0
573,0.3180997706039087,0.0
574,-0.026900005993790076,0.0
575,0.02990979443318481,0.0
576,-0.026810700792763466,0.0
577,0.048739352344618764,0.0
578,-0.005244150958733519,0.0
579,-0.0008688239623062984,0.0
580,-0.07214081715322346,0.0
581,0.03834328905993241,0.0
582,0.012944013302781818,0.0
583,0.027016057460046504,0.0
584,2.5483661208591357,0.0
585,6.760648126140617,0.0
586,-2.0019685690063107,0.0
587,0.2655814835523681,0.0
588,0.03759729043468714,0.0
589,-0.026477878944374658,0.0
590,-0.06550431451936928,0.0
591,-0.06750235004850186,0.0
592,-0.05007963937992593,0.0
593,-0.0019145077417931193,0.0
594,0.0069658036032989226,0.0
595,-0.03933066155616237,0.0
596,-0.0018810431471759544,0.0
597,0.17863012655066438,0.0
598,0.008815636463275368,0.0
599,-0.03933579969783853,0.0
600,0.42789310015883564,0.0
601,4.715604215924197,0.0
602,4.728220513624485,0.0
603,-2.940953885153851,0.0
604,1.5539111016523035,0.0
605,-0.8000866906237871,0.0
606,0.2847019455001147,0.0
607,-0.11704255832785723,0.0
608,0.08821540028139953,0.0
609,-0.003834865036644892,0.0
610,-0.015483107753784094,0.0
611,0.005077183167159105,0.0
612,0.08154635725764076,0.0
613,0.04569386785488808,0.0
614,0.14034743553581452,0.0
615,0.04162615433792229,0.0
616,0.09819927485627275,0.0
617,1.1515720071257172,0.0
618,6.597420191896674,0.0
619,1.374591484800488,0.0
620,-1.6492173261751077,0.0
621,1.1997007690747656,0.0
622,-0.5530741140815035,0.0
623,0.2692536120649427,0.0
624,0.0014632397484682924,0.0
625,0.06313648023250355,0.0
626,0.03414107644298194,0.0
627,-0.0540064154485292,0.0
628,-0.031027253105347045,0.0
629,-0.054566663974497914,0.0
630,-0.028734897316885197,0.0
631,0.007725193383292986,0.0
632,-0.059406012491087595,0.0
633,0.03599000423982309,0.0
634,2.5658077600481555,0.0
635,6.750334460563653,0.0
636,-1.9991118909136019,0.0
637,0.2372785173164955,0.0
638,0.09433398347702818,0.0
639,-0.07273239216464888,0.0
640,-0.04419027327630439,0.0
641,-0.028654098877953827,0.0
642,0.006548522104978333,0.0
643,-0.1304348504482594,0.0
644,-0.03651669995019957,0.0
645,0.019249517254372513,0.0
646,-0.04126999073204756,0.0
647,-0.08298729540279817,0.0
648,-0.05068798879896068,0.0
649,-0.004601712635714801,0.0
650,0.19165944563304965,0.0
651,4.728833964730415,0.0
652,4.637141007195768,0.0
653,-2.9341592292910272,0.0
654,1.5433290797951844,0.0
655,-0.8391631134096343,0.0
656,0.22165461122477206,0.0
657,-0.10443076364100748,0.0
658,-0.04283058150226253,0.0
659,-0.06830549669939583,0.0
660,0.041823689907484876,0.0
661,-0.01825502150211796,0.0
662,0.011442223156443216,0.0
663,-0.018882586595458467,0.0
664,0.009840342804758265,0.0
665,-0.030573752127398702,0.0
666,-0.0016980398842034589,0.0
667,1.0834231649408006,0.0
668,6.537715276095321,0.0
669,1.1585579723651052,0.0
670,-1.8154580567120366,0.0
671,1.1510312474299056,0.0
672,-0.6035282334266567,0.0
673,0.2826492075468085,0.0
674,-0.15333283425368255,0.0
675,0.030684934646872213,0.0
676,-0.06792762351458309,0.0
677,-0.012667562166299995,0.0
678,-0.037164614481626,0.0
679,-0.08076794229331652,0.0
680,0.05465286853135191,0.0
681,-0.1441129610214103,0.0
682,-0.02998683283764877,0.0
683,0.055876465457432176,0.0
684,2.604680893188458,0.0
685,6.903751855343972,0.0
686,-2.0100607410929925,0.0
687,0.341620380520637,0.0
688,0.04920942529293766,0.0
689,-0.07151799081409049,0.0
690,0.1094316816740575,0.0
691,0.045624397642108364,0.0
692,-0.009717593749866676,0.0
693,-0.020017896001403815,0.0
694,-0.025102569945802348,0.0
695,0.10493989946436265,0.0
696,-0.03246152448675854,0.0
697,-0.029243895995786223,0.0
698,-0.05929378118821621,0.0
699,0.06264772390130029,0.0
700,0.2861090587230575,0.0
701,4.809105557968459,0.0
702,4.626590209066924,0.0
703,-3.0123814402585087,0.0
704,1.595101477191442,0.0
705,-0.7801746524096368,0.0
706,0.26924536368609325,0.0
707,-0.13011930176248526,0.0
708,0.019205044779584478,0.0
709,0.014898637647867731,0.0
710,0.08820621079969382,0.0
711,0.004233348791432216,0.0
712,-0.08962502364135462,0.0
713,0.057398880230555505,0.0
714,0.05588038619906474,0.0
715,0.06506208783416353,0.0
716,0.0950938814571104,0.0
717,1.2540056709152652,0.0
718,6.629401332279782,0.0
719,1.3303929380014496,0.0
720,-1.7020111567624192,0.0
721,1.176866809883669,0.0
722,-0.5448462633306242,0.0
723,0.348131921224909,0.0
724,-0.12098539877056716,0.0
725,0.0647557663521063,0.0
726,0.011720335514450146,0.0
727,-0.034315348783781965,0.0
728,0.039420711402581673,0.0
729,-0.04555572738811338,0.0
730,0.024233670442598873,0.0
731,-0.05627697003183865,0.0
732,-0.018485460218089698,0.0
733,0.07385589901271386,0.0
734,2.6717541257561392,0.0
735,6.861076755298655,0.0
736,-1.9171050152325482,0.0
737,0.39540043963842525,0.0
738,0.09577078325555649,0.0
739,0.05824469189206568,0.0
740,0.037243992065493364,0.0
741,0.05243506995002903,0.0
742,0.05317508596720693,0.0
743,0.08166987160368633,0.0
744,0.11258453106775043,0.0
745,0.04336602941712082,0.0
746,0.029405382171956578,0.0
747,0.04835125324934318,0.0
748,0.04404823172143847,0.0
749,0.0469851349778138,0.0
750,0.3720716702590128,0.0
751,4.823932462261311,0.0
752,4.727184984646458,0.0
753,-3.015079996639422,0.0
754,1.621351797271565,0.0
755,-0.7589914410319529,0.0
756,0.2833366907231312,0.0
757,-0.061427177165416506,0.0
758,0.08899304043442599,0.0
759,-0.06396368292619911,0.0
760,0.018992076208383238,0.0
761,-0.026564836862183378,0.0
762,-0.012693346223019993,0.0
763,0.07751321171424039,0.0
764,0.0041170478499846855,0.0
765,0.09006745176730357,0.0
766,0.11588333857604612,0.0
767,1.217875542925076,0.0
768,6.649568148774774,0.0
769,1.1967777119881418,0.0
770,-1.7517002788970777,0.0
771,1.2528927253570978,0.0
772,-0.5382663782952737,0.0
773,0.36146880119521313,0.0
774,-0.061381388460678664,0.0
775,-0.021266432991295325,0.0
776,-0.03272844711289861,0.0
777,0.032850997940315735,0.0
778,0.024943307237193884,0.0
779,0.0378505582345376,0.0
780,0.1040307226261991,0.0
781,0.11108633133366538,0.0
782,0.08373484891459296,0.0
783,0.10393236976580632,0.0
784,2.6823097130368327,0.0
785,6.784916335823636,0.0
786,-2.020850899823973,0.0
787,0.49141735553722926,0.0
788,0.16538043243745676,0.0
789,-0.09282450788559143,0.0
790,0.039838271461657776,0.0
791,-0.009041660467874843,0.0
792,-0.0479154012318476,0.0
793,0.11068704538489538,0.0
794,0.06050338991079815,0.0
795,0.0772438547090817,0.0
796,0.029074795682325245,0.0
797,0.08769826804623891,0.0
798,-0.011442129857439781,0.0
799,0.09168603032219745,0.0
800,0.41016676672564045,0.0
801,4.920803795235114,0.0
802,4.721972712855077,0.0
803,-2.9709012025585086,0.0
804,1.5953104459994427,0.0
805,-0.8050284249973956,0.0
806,0.31868410867313257,0.0
807,-0.05799295073948622,0.0
808,0.0616406211606465,0.0
809,0.05161209220129375,0.0
810,-0.0745046653119432,0.0
811,0.10803843396952595,0.0
812,0.009715224210359148,0.0
813,0.015876141191575092,0.0
814,0.09846210684982415,0.0
815,0.02944953906254313,0.0
816,0.0511910911444109,0.0
817,1.145544343812853,0.0
818,6.64148396470144,0.0
819,1.2446291265536122,0.0
820,-1.7348484909347945,0.0
821,1.1900455062375666,0.0
822,-0.5551406020157466,0.0
823,0.3130321530377114,0.0
824,-0.0650532928851638,0.0
825,0.05599386832871103,0.0
826,0.010373201432752353,0.0
827,0.07165346038051906,0.0
828,0.08080638666490104,0.0
829,0.09721550327746076,0.0
830,0.03553918722156173,0.0
831,0.12933197066670982,0.0
832,0.0939481897043635,0.0
833,0.17397207300734197,0.0
834,2.7282755130227305,0.0
835,6.804842792503123,0.0
836,-1.9534890774776672,0.0
837,0.4414489202225245,0.0
838,0.04285401182877517,0.0
839,-0.07219387905696506,0.0
840,-0.0505195729496307,0.0
841,0.03501190321534219,0.0
842,0.06434138212084382,0.0
843,0.05752208984014221,0.0
844,0.051758664042814706,0.0
845,0.1261703204020083,0.0
846,0.13972671637785808,0.0
847,0.0785833352104354,0.0
848,0.07090906593040275,0.0
849,0.047999462553743696,0.0
850,0.3371508391171631,0.0
851,4.988667872886116,0.0
852,4.752697093311424,0.0
853,-2.9681635056376945,0.0
854,1.6112685082134317,0.0
855,-0.7046869756747142,0.0
856,0.35230599356106995,0.0
857,-0.042145474848749045,0.0
858,0.16479677966119,0.0
859,0.053649308084434466,0.0
860,-0.02404608099324946,0.0
861,-0.02321402396343588,0.0
862,0.012158713008291612,0.0
863,0.06542887986772312,0.0
864,0.07016755904274397,0.0
865,-0.022272533266812423,0.0
866,-0.021333776158224585,0.0
867,1.169987024047777,0.0
868,6.569786445312662,0.0
869,1.120463151539189,0.0
870,-1.7239038693394035,0.0
871,1.1197708987033115,0.0
872,-0.5105305888357341,0.0
873,0.30402877694685765,0.0
874,0.04075604799999684,0.0
875,-0.009458144799300794,0.0
876,0.0015969831344186287,0.0
877,0.023271971110429876,0.0
878,-0.09277060935401596,0.0
879,-0.007357405073967794,0.0
880,0.05834818255680253,0.0
881,0.07020070637288559,0.0
882,-0.031893443397544435,0.0
883,-0.03912279269306871,0.0
884,2.7007209453111387,0.0
885,6.760997061262671,0.0
886,-2.1126413336871392,0.0
887,0.38280866920376305,0.0
888,0.008682235756639796,0.0
889,-0.1189197417219757,0.0
890,-0.016090886034414022,0.0
891,0.019899843504616106,0.0
892,0.02296476885215657,0.0
893,-0.05971177987868999,0.0
894,-0.0833135830836499,0.0
895,0.03321278863967227,0.0
896,-0.0018153668376356827,0.0
897,-0.030615157968680487,0.0
898,-0.032059575555959285,0.0
899,0.03310764661118211,0.0
900,0.375531635105731,0.0
901,4.753590072983694,0.0
902,4.685881483343831,0.0
903,-3.00990999019421,0.0
904,1.480128860295017,0.0
905,-0.7862860958487937,0.0
906,0.2955549663613517,0.0
907,-0.20359603985282215,0.0
908,0.05386076720469857,0.0
909,-0.053702934863735396,0.0
910,-0.017766184572417684,0.0
911,-0.02388535805943305,0.0
912,-0.07056313358819523,0.0
913,0.018985876401530544,0.0
914,-0.1324038182559052,0.0
915,0.031655449695648326,0.0
916,0.02519796639543733,0.0
917,1.1904982757347948,0.0
918,6.686416591247674,0.0
919,1.157646007767131,0.0
920,-1.6284061005891306,0.0
921,1.198206696668235,0.0
922,-0.5536773951202929,0.0
923,0.24812888141652686,0.0
924,-0.09323520968325393,0.0
925,0.04233526033670109,0.0
926,0.06834929195919096,0.0
927,-0.13425529044249326,0.0
928,-0.017067842948071548,0.0
929,0.011155423072430837,0.0
930,-0.06541067394159009,0.0
931,-0.012426473569953987,0.0
932,-0.05299308446218187,0.0
933,-0.06303659532648598,0.0
934,2.6300021929452546,0.0
935,6.680833773236708,0.0
936,-2.1224433363763735,0.0
937,0.39963403223339483,0.0
938,0.026658478656640276,0.0
939,-0.13346018719402597,0.0
940,-0.035361348864531114,0.0
941,-0.05679955736224619,0.0
942,0.013904471652300923,0.0
943,-0.01820392600783157,0.0
944,-0.09677699498195011,0.0
945,-0.02554832932212014,0.0
946,-0.00041904584834513703,0.0
947,-0.08585950158619111,0.0
948,-0.04001454451104294,0.0
949,-0.007445296538832236,0.0
950,0.289012724909937,0.0
951,4.759369580498438,0.0
952,4.581446152988372,0.0
953,-2.9847795071222656,0.0
954,1.5866043385396078,0.0
955,-0.7690057676709313,0.0
956,0.2835075930518132,0.0
957,-0.1064749633177692,0.0
958,0.033467084888140104,0.0
959,0.004767811163393233,0.0
960,-0.01625830310224747,0.0
961,0.029110078889072556,0.0
962,0.08022562610150615,0.0
963,0.024782601552708585,0.0
964,0.05180061724352887,0.0
965,0.09130329654601907,0.0
966,0.01986700992439426,0.0
967,1.103130232775514,0.0
968,6.588069943706947,0.0
969,1.1738685074316568,0.0
970,-1.7058071480961967,0.0
971,1.159929426084244,0.0
972,-0.6258605138343356,0.0
973,0.2721646692114598,0.0
974,-0.11537394578178542,0.0
975,-0.00143369052747018,0.0
976,0.01894492818800608,0.0
977,-0.08438313039104475,0.0
978,0.010143640471166067,0.0
979,-0.09827030128011752,0.0
980,-0.051317390782049666,0.0
981,-0.03978516688955702,0.0
982,-0.009061099139008034,0.0
983,-0.01974805235484386,0.0
984,2.6027285352879037,0.0
985,6.798185798782689,0.0
986,-2.107178455000667,0.0
987,0.48084930654506697,0.0
988,0.06433068931384747,0.0
989,-0.07544467011116066,0.0
990,-0.012284228249994637,0.0
991,0.009326639291057147,0.0
992,0.02817887363860172,0.0
993,0.05240177137559267,0.0
994,0.0039129284370883755,0.0
995,-0.029791499146146004,0.0
996,0.06846699741599017,0.0
997,-0.03468319217623133,0.0
998,0.1120052982987578,0.0
999,-0.0677310779268197,0.0
1000,0.3186344365729493,0.0
1001,4.833291111613097,0.0
1002,4.608727571606533,0.0
1003,-2.99430826424957,0.0
1004,1.4362534680021914,0.0
1005,-0.838872869176587,0.0
1006,0.30043801168308926,0.0
1007,-0.15790280669109227,0.0
1008,0.0194168731525547,0.0
1009,-0.10508357111747586,0.0
1010,-0.04389925451391242,0.0
1011,-0.09825374555855915,0.0
1012,-0.04408587827000997,0.0
1013,-0.0873545145839722,0.0
1014,0.05221606813732655,0.0
1015,0.0013063455234650564,0.0
1016,-0.01195397671704427,0.0
1017,1.1845036083495453,0.0
1018,6.621190938118502,0.0
1019,1.1924693983490058,0.0
1020,-1.6622612668918955,0.0
1021,1.1965685977838438,0.0
1022,-0.4758127191822069,0.0
1023,0.23201531608534515,0.0
1024,-0.036582551782641755,0.0
1025,0.037232103044649405,0.0
1026,0.08902207143860977,0.0
1027,0.0697900748060229,0.0
1028,0.08109327954833417,0.0
1029,0.043555702719854025,0.0
1030,0.014249621425997233,0.0
1031,0.15048438950830328,0.0
1032,-0.004886476132985776,0.0
1033,-0.02038385678092751,0.0
1034,2.736297825175728,0.0
1035,6.793216637489013,0.0
1036,-2.0839948721078327,0.0
1037,0.48210590679912124,0.0
1038,0.14715942110057284,0.0
1039,0.002358505130241474,0.0
1040,0.04201886323012394,0.0
1041,0.09583440954703665,0.0
1042,0.07289768983931781,0.0
1043,0.07063564699998254,0.0
1044,0.11493818238184975,0.0
1045,0.14707755692609095,0.0
1046,0.08584887073623099,0.0
1047,0.028228417534774432,0.0
1048,0.045070354005063026,0.0
1049,0.052921295226714606,0.0
1050,0.3597141157409818,0.0
1051,4.875852447595152,0.0
1052,4.713669360876264,0.0
1053,-2.9431802610800974,0.0
1054,1.6432018973218332,0.0
1055,-0.7489141398965394,0.0
1056,0.37949710781748985,0.0
1057,-0.08673077091219039,0.0
1058,0.001922139356882617,0.0
1059,-0.004750693574330792,0.0
1060,-0.000753894205091912,0.0
1061,-0.03314041049473501,0.0
1062,-0.008059081242099279,0.0
1063,0.08318756447781812,0.0
1064,-0.07305785492228861,0.0
1065,0.05985003210222993,0.0
1066,0.07635861356499764,0.0
1067,1.1990191120001812,0.0
1068,6.645623537786284,0.0
1069,1.1340758841254448,0.0
1070,-1.5701601119044106,0.0
1071,1.1559555644588548,0.0
1072,-0.5314666396872586,0.0
1073,0.22966750539921654,0.0
1074,-0.09429244610163144,0.0
1075,0.1269415430846889,0.0
1076,0.1262845698970682,0.0
1077,0.009787722291432259,0.0
1078,0.048787711098947834,0.0
1079,0.10581877958556504,0.0
1080,0.08005495132173725,0.0
1081,0.05633183931057677,0.0
1082,0.023164525581219092,0.0
1083,0.13193541226129485,0.0
1084,2.822716312635873,0.0
1085,6.769390860513142,0.0
1086,-2.131680739638291,0.0
1087,0.4695793030325131,0.0
1088,-0.01695744938680764,0.0
1089,0.00034106092253702314,0.0
1090,0.08456380413715495,0.0
1091,0.02089915564349969,0.0
1092,-0.057549046177549,0.0
1093,-0.027809500356106062,0.0
1094,-0.055903426108669205,0.0
1095,0.07995867268176272,0.0
1096,-0.0810431081735582,0.0
1097,0.024466291309712417,0.0
1098,0.10473547927600564,0.0
1099,0.04952575983705795,0.0
1100,0.40091910929825725,0.0
1101,4.9252358698930205,0.0
1102,4.543048134678496,0.0
1103,-2.9030630936777406,0.0
1104,1.580765185384794,0.0
1105,-0.7477266055380856,0.0
1106,0.3399794984709245,0.0
1107,-0.07716140486495109,0.0
1108,0.047146585548774045,0.0
1109,0.07355642412048416,0.0
1110,-0.027187016551232915,0.0
1111,-0.04652545146716885,0.0
1112,-0.048684799454763235,0.0
1113,-0.052771955295962784,0.0
1114,0.05873466919344298,0.0
1115,0.032013896514910045,0.0
1116,-0.13245185758291383,0.0
1117,1.118541921339832,0.0
1118,6.632294624917564,0.0
1119,1.0853752126567113,0.0
1120,-1.6565288850875703,0.0
1121,1.161941160420072,0.0
1122,-0.5485937438854103,0.0
1123,0.2461800178494255,0.0
1124,-0.058514618167311065,0.0
1125,-0.03423756648686502,0.0
1126,0.0338541572328745,0.0
1127,0.13919197767373392,0.0
1128,-0.0068574449801843,0.0
1129,-0.05167464550795103,0.0
1130,-0.025584203940574486,0.0
1131,-0.0034566600927806237,0.0
1132,-0.010530970475841483,0.0
1133,-0.05891134448980038,0.0
1134,2.794657307044034,0.0
1135,6.682109384475358,0.0
1136,-2.112402433550608,0.0
1137,0.34818940908676643,0.0
1138,0.0331195098700725,0.0
1139,-0.11148987486262169,0.0
1140,0.026043886950960535,0.0
1141,-0.02626591026307044,0.0
1142,-0.050513177628147915,0.0
1143,-0.04642129488675909,0.0
1144,-0.012633103291250003,0.0
1145,-0.10431166530447022,0.0
1146,-0.1139742668448161,0.0
1147,-0.06518853626017947,0.0
1148,-0.06147045252355414,0.0
1149,-0.0623015176061521,0.0
1150,0.2804236739745284,0.0
1151,4.925221750906244,0.0
1152,4.500030690218638,0.0
1153,-3.0348530974454886,0.0
1154,1.5229583118760477,0.0
1155,-0.7918186046357467,0.0
1156,0.2838952736668741,0.0
1157,-0.1493798082343416,0.0
1158,0.030721349093902693,0.0
1159,-0.04937447202431818,0.0
1160,-0.12141382095023723,0.0
1161,0.014042671933209835,0.0
1162,-0.02556490949724479,0.0
1163,0.07746685922161684,0.0
1164,0.06036509769192048,0.0
1165,-0.0733946434596703,0.0
1166,-0.01181755558483639,0.0
1167,1.1716647013986805,0.0
1168,6.6579694279662425,0.0
1169,0.9774466113180411,0.0
1170,-1.6469239585876203,0.0
1171,1.0366299671308763,0.0
1172,-0.6943398994541956,0.0
1173,0.15816036598103717,0.0
1174,-0.08577347653981375,0.0
1175,-0.00976091814215807,0.0
1176,-0.0871537599326669,0.0
1177,-0.17287559243690537,0.0
1178,-0.10840239233241,0.0
1179,-0.1111190825030765,0.0
1180,-0.1547107030300047,0.0
1181,-0.13139514658336798,0.0
1182,-0.20279630334733983,0.0
1183,-0.16101250015630308,0.0
1184,2.5414037182209603,0.0
1185,6.518972259442394,0.0
1186,-2.2674948676871445,0.0
1187,0.31760680133690367,0.0
1188,-0.05047140362961494,0.0
1189,-0.14222389166977592,0.0
1190,-0.06918307832787818,0.0
1191,-0.08246358692946709,0.0
1192,-0.10651049120694064,0.0
1193,-0.15279782845165507,0.0
1194,-0.06614754460520705,0.0
1195,-0.06546477837196141,0.0
1196,-0.03181745481587283,0.0
1197,-0.04514846541625806,0.0
1198,-0.02121421220479448,0.0
1199,-0.0065279564679000465,0.0
1200,0.28974426470307835,0.0
1201,4.8710784107589795,0.0
1202,4.495319257498156,0.0
1203,-2.9768913754144104,0.0
1204,1.4552821533390394,0.0
1205,-0.8295881079390918,0.0
1206,0.209600495168967,0.0
1207,-0.12599378044746637,0.0
1208,0.03276665073627829,0.0
1209,-0.11381892822444896,0.0
1210,-0.06002673486188634,0.0
1211,-0.02728038343119333,0.0
1212,-0.08656952608631244,0.0
1213,-0.053349432723819555,0.0
1214,-0.124270515952182,0.0
1215,0.028234219501527175,0.0
1216,-0.004848933245757012,0.0
1217,1.2236893216527982,0.0
1218,6.592925823139043,0.0
1219,0.8781291323252877,0.0
1220,-1.6791596532323434,0.0
1221,1.0763458263459578,0.0
1222,-0.4978282961725699,0.0
1223,0.315547465316975,0.0
1224,-0.06975479835324974,0.0
1225,0.030446902452329335,0.0
1226,-0.07922248208984337,0.0
1227,-0.019194298429801457,0.0
1228,-0.0020425000782344216,0.0
1229,-0.014554369868788549,0.0
1230,-0.08939321037735672,0.0
1231,-0.00882245419688897,0.0
1232,-0.02782370588278606,0.0
1233,-0.03370721085269675,0.0
1234,2.7036816733842874,0.0
1235,6.791549137743555,0.0
1236,-2.1651198772267723,0.0
1237,0.4927954775007808,0.0
1238,-0.09775348680322177,0.0
1239,-0.06353683519356848,0.0
1240,-0.0006301182116694379,0.0
1241,-0.008330397177823797,0.0
1242,-0.018211287569896234,0.0
1243,-0.07483386457907062,0.0
1244,-0.022908618639882583,0.0
1245,-0.07890306372452266,0.0
1246,0.037882859397579884,0.0
1247,-0.026906724677549523,0.0
1248,-0.11719401070805785,0.0
1249,-0.09937808949438273,0.0
1250,0.33127979293344345,0.0
1251,4.860093853896885,0.0
1252,4.427617932698928,0.0
1253,-3.0475394255791564,0.0
1254,1.5887268916401407,0.0
1255,-0.7435572093172542,0.0
1256,0.24455824318646935,0.0
1257,-0.1812742683431013,0.0
1258,0.019634325211546774,0.0
1259,0.03712421162712787,0.0
1260,-0.017139275061615687,0.0
1261,0.02504766074726999,0.0
1262,0.10328930886714563,0.0
1263,-0.06008195680202533,0.0
1264,-0.033617565275904586,0.0
1265,-0.004094526032745519,0.0
1266,-0.016142890887088295,0.0
1267,1.245254261674781,0.0
1268,6.693896362842202,0.0
1269,0.896377623452106,0.0
1270,-1.6850480186306582,0.0
1271,1.1544286926542584,0.0
1272,-0.6553070585369436,0.0
1273,0.3173191611945829,0.0
1274,-0.024323297608126238,0.0
1275,-0.034586105141317075,0.0
1276,0.043495566832363275,0.0
1277,0.022866587572677937,0.0
1278,-0.015189592266440347,0.0
1279,0.064632144040681,0.0
1280,-0.03380371913765221,0.0
1281,-0.09246992205543286,0.0
1282,-0.056241914249376065,0.0
1283,-0.02427322868256862,0.0
1284,2.8184950463239744,0.0
1285,6.736193715788802,0.0
1286,-2.2741211893693207,0.0
1287,0.5766077866860768,0.0
1288,-0.10032437043618951,0.0
1289,-0.03474647078053716,0.0
1290,0.03974405485664624,0.0
1291,0.01895244146461411,0.0
1292,0.05869675231744201,0.0
1293,0.032103269611804354,0.0
1294,0.003382576007711496,0.0
1295,-0.06726635892919491,0.0
1296,0.028812362065660613,0.0
1297,-0.014569991417898803,0.0
1298,0.093052575780037,0.0
1299,-0.08037235871381986,0.0
1300,0.34600861103977765,0.0
1301,5.015660476668727,0.0
1302,4.514196953369599,0.0
1303,-2.9570370695821295,0.0
1304,1.5936779557809513,0.0
1305,-0.7544608207535267,0.0
1306,0.35289854123620457,0.0
1307,-0.09469264029404405,0.0
1308,0.07353719573661927,0.0
1309,0.0769784175657515,0.0
1310,0.027933157991054926,0.0
1311,0.04691460764637541,0.0
1312,-0.021906909966193034,0.0
1313,-0.04072517417612143,0.0
1314,0.09740343340493027,0.0
1315,-0.05202795678447211,0.0
1316,-0.05934713205411526,0.0
1317,1.1840954679904465,0.0
1318,6.712734505272935,0.0
1319,0.7894240768960294,0.0
1320,-1.6773663729024866,0.0
1321,1.0262495660910524,0.0
1322,-0.5469301509691886,0.0
1323,0.1525960398061118,0.0
1324,-0.1404650257497827,0.0
1325,0.04346475039211443,0.0
1326,-0.08783284743949779,0.0
1327,0.0715758120609732,0.0
1328,0.011865455726894035,0.0
1329,0.024242745130605804,0.0
1330,0.06653143608095484,0.0
1331,-0.08173066618298021,0.0
1332,0.020049240187861115,0.0
1333,0.12684492321198515,0.0
1334,2.7599822010973423,0.0
1335,6.828285439824538,0.0
1336,-2.2016044665061325,0.0
1337,0.47501678757380994,0.0
1338,0.023281928373645844,0.0
1339,0.06283977561603399,0.0
1340,0.0418884877386175,0.0
1341,0.11293252391340333,0.0
1342,0.07138210752956106,0.0
1343,-0.020455567811943277,0.0
1344,0.032911024788803686,0.0
1345,0.01840143330569871,0.0
1346,0.02020931357373458,0.0
1347,0.008689102982454545,0.0
1348,0.06376438114438027,0.0
1349,0.03951999939219124,0.0
1350,0.4023586063260385,0.0
1351,4.959027335674017,0.0
1352,4.460435563422459,0.0
1353,-2.921313366721125,0.0
1354,1.5457817141097174,0.0
1355,-0.7031640752746845,0.0
1356,0.29661823523427683,0.0
1357,-0.07742445781464358,0.0
1358,0.020801459416622627,0.0
1359,0.19200709058763077,0.0
1360,-0.010970462303199785,0.0
1361,0.08016648930357281,0.0
1362,0.08953186627397186,0.0
1363,-0.020395544239750974,0.0
1364,0.03525356698244911,0.0
1365,0.06171275205694869,0.0
1366,0.06914284027267076,0.0
1367,1.3030718854271015,0.0
1368,6.737362228337123,0.0
1369,0.9738700547060621,0.0
1370,-1.54400938827478,0.0
1371,1.075913026176676,0.0
1372,-0.4928205936364433,0.0
1373,0.29338388847392055,0.0
1374,-0.05068619797260766,0.0
1375,0.035597498947834046,0.0
1376,0.0023201570259565873,0.0
1377,0.039698690747373214,0.0
1378,0.08365084906064824,0.0
1379,0.029581663163152513,0.0
1380,0.07527661107237822,0.0
1381,-0.0042027717000985496,0.0
1382,0.05268389931486476,0.0
1383,0.09757296932054403,0.0
1384,2.8250655765423875,0.0
1385,6.697302455191353,0.0
1386,-2.22954742337482,0.0
1387,0.5513854125018635,0.0
1388,-0.04018748395897173,0.0
1389,-0.08576074506061983,0.0
1390,-0.014823636113918542,0.0
1391,0.07194470439736582,0.0
1392,-0.016224531733026758,0.0
1393,-0.07301301309532823,0.0
1394,-0.012909919762101327,0.0
1395,0.03314617211747569,0.0
1396,-0.02807677430339254,0.0
1397,-0.056102797738892665,0.0
1398,0.14035470108503428,0.0
1399,-0.03981492921783653,0.0
1400,0.4037918026070959,0.0
1401,4.991322123580268,0.0
1402,4.3828227536211735,0.0
1403,-3.003285325691283,0.0
1404,1.5634130512611242,0.0
1405,-0.9094303197910452,0.0
1406,0.33830321492944476,0.0
1407,-0.1732395571125945,0.0
1408,-0.10505838304060101,0.0
1409,-0.14969269790768397,0.0
1410,-0.08192939947588172,0.0
1411,-0.1282410340020064,0.0
1412,-0.19405203861224557,0.0
1413,-0.14760567880176775,0.0
1414,-0.15835551008644908,0.0
1415,-0.12798564047325747,0.0
1416,-0.09995196321018274,0.0
1417,1.1678708513613865,0.0
1418,6.769700867303964,0.0
1419,0.8853180527640498,0.0
1420,-1.619488850499059,0.0
1421,1.0433379826733427,0.0
1422,-0.5406272942998109,0.0
1423,0.28143434780144055,0.0
1424,-0.0905476359812207,0.0
1425,0.006175904785687365,0.0
1426,0.03820331561195985,0.0
1427,0.044778863677363556,0.0
1428,0.04718437295829108,0.0
1429,-0.044369102504620894,0.0
1430,-0.07443535772918272,0.0
1431,-0.07702964184633257,0.0
1432,-0.02310639930153843,0.0
1433,0.08695749441372383,0.0
1434,2.8685291992050383,0.0
1435,6.737220015411531,0.0
1436,-2.2457905625901655,0.0
1437,0.5220313480797022,0.0
1438,-0.0473878665731342,0.0
1439,-0.011512281599853312,0.0
1440,-0.06155281529213151,0.0
1441,0.005285394374746701,0.0
1442,0.02926839878813409,0.0
1443,0.039018785841038996,0.0
1444,-0.055510128732052993,0.0
1445,0.027764360303406607,0.0
1446,-0.01036823896510825,0.0
1447,-0.04676102089610817,0.0
1448,-0.07640890888369722,0.0
1449,-0.03299743036435627,0.0
1450,0.39674246146089737,0.0
1451,4.9455078226854665,0.0
1452,4.367053193309184,0.0
1453,-2.976524754392493,0.0
1454,1.6061498675643535,0.0
1455,-0.8123941090579663,0.0
1456,0.2607036990477806,0.0
1457,-0.13633037562499697,0.0
1458,0.10431490288367663,0.0
1459,-0.13218575673186198,0.0
1460,-0.09724207486919575,0.0
1461,0.03862540431271118,0.0
1462,-0.02205738320426809,0.0
1463,-0.02119379078003577,0.0
1464,-0.055052436751011506,0.0
1465,0.03360969126984245,0.0
1466,-0.044636137149838204,0.0
1467,1.147622427609041,0.0
1468,6.6957248361771855,0.0
1469,0.8185893824198592,0.0
1470,-1.5397827454840922,0.0
1471,1.006588246694307,0.0
1472,-0.5760248092184208,0.0
1473,0.21004943372045146,0.0
1474,-0.14826304700917756,0.0
1475,-0.07168764456673637,0.0
1476,-0.05184956344756425,0.0
1477,0.01585562889298537,0.0
1478,0.04765849266859518,0.0
1479,-0.055768097680362755,0.0
1480,-0.09065773327300114,0.0
1481,-0.121051989039712,0.0
1482,-0.0859104581346633,0.0
1483,0.022844839615579572,0.0
1484,2.719651220640247,0.0
1485,6.660066608053629,0.0
1486,-2.2923372797527173,0.0
1487,0.4756266254258408,0.0
1488,-0.08289429100280474,0.0
1489,-0.028730507013244803,0.0
1490,-0.054448901934365745,0.0
1491,-0.022811911470313206,0.0
1492,-0.017553559240284282,0.0
1493,-0.01948746500098871,0.0
1494,-0.07692137786310169,0.0
1495,-0.08381263573762338,0.0
1496,-0.1156958139142557,0.0
1497,-0.05162946515157821,0.0
1498,-0.01982523035632107,0.0
1499,0.027094217408836878,0.0
1500,0.41609365971963397,0.0
1501,4.984981737092048,0.0
1502,4.409209258173252,0.0
1503,-2.9395563274338308,0.0
1504,1.6291551969060396,0.0
1505,-0.7876477549666052,0.0
1506,0.3507017469208246,0.0
1507,-0.09515927937640889,0.0
1508,0.00519878653407925,0.0
1509,0.00013397271304288472,0.0
1510,0.018983452605227893,0.0
1511,0.038920841038118374,0.0
1512,-0.04633023179320077,0.0
1513,0.01190437997110163,0.0
1514,-0.027049810105286006,0.0
1515,0.03227316107905151,0.0
1516,-0.000902557405832242,0.0
1517,1.2505514123975274,0.0
1518,6.651256602829738,0.0
1519,0.8487191783803728,0.0
1520,-1.4687108061384073,0.0
1521,1.178083751644273,0.0
1522,-0.5750565584172787,0.0
1523,0.23255479362421405,0.0
1524,-0.06116039846439136,0.0
1525,0.03247323046740891,0.0
1526,0.015564485448485646,0.0
1527,0.027451202771311516,0.0
1528,0.04232744273926643,0.0
1529,0.07822290816568826,0.0
1530,-0.02423573244124648,0.0
1531,-0.006612465162928464,0.0
1532,0.06288044015899438,0.0
1533,0.006925082598441375,0.0
1534,2.849247323669694,0.0
1535,6.7162905375880735,0.0
1536,-2.2586247450140955,0.0
1537,0.5700687006528641,0.0
1538,-0.15658133631581175,0.0
1539,-0.022489472865658805,0.0
1540,-0.04136698134192904,0.0
1541,-0.022925521945770383,0.0
1542,-0.04425750105277038,0.0
1543,-0.09845933159557077,0.0
1544,-0.10022430527092928,0.0
1545,0.02286059490324794,0.0
1546,0.04139333835824682,0.0
1547,-0.0840526935219722,0.0
1548,0.02171663914091528,0.0
1549,-0.11336043452507173,0.0
1550,0.3279404500184779,0.0
1551,5.082636115186318,0.0
1552,4.406495432357815,0.0
1553,-2.9539193117374376,0.0
1554,1.5049289336084477,0.0
1555,-0.7975687556151213,0.0
1556,0.38278917464895484,0.0
1557,-0.11209849714840238,0.0
1558,0.054024452408274665,0.0
1559,-0.009715400844905173,0.0
1560,0.06256514751364652,0.0
1561,-0.07185921720616635,0.0
1562,-0.008760856017359354,0.0
1563,-0.04920764315474604,0.0
1564,-0.03244416212296358,0.0
1565,0.018033325362149515,0.0
1566,-0.005008692201201689,0.0
1567,1.2680765922101742,0.0
1568,6.668353069967124,0.0
1569,0.7677929192397124,0.0
1570,-1.5564091306440622,0.0
1571,0.9638306609405265,0.0
1572,-0.5192093693339359,0.0
1573,0.17900426435698913,0.0
1574,-0.13034838630909729,0.0
1575,0.024042512050170547,0.0
1576,-0.07059947317978633,0.0
1577,-0.013411534501052688,0.0
1578,-0.13758947064676993,0.0
1579,-0.02097486221319151,0.0
1580,-0.109326751812933,0.0
1581,-0.1097088749645193,0.0
1582,-0.12283800481296611,0.0
1583,-0.007268675094326079,0.0
1584,2.7341072749053166,0.0
1585,6.6284624489585084,0.0
1586,-2.311982177563133,0.0
1587,0.5627576708618969,0.0
1588,-0.12342967291737925,0.0
1589,-0.07490480715910403,0.0
1590,-0.11158110301505685,0.0
1591,-0.013571865886784922,0.0
1592,-0.11464591640405747,0.0
1593,0.01645061400442851,0.0
1594,-0.08263022521583697,0.0
1595,-0.08737998672658723,0.0
1596,-0.08742549588621026,0.0
1597,-0.03540309746479389,0.0
1598,-0.14664624603589965,0.0
1599,0.024351582176298216,0.0
1600,0.3457609468327443,0.0
1601,4.965766968582678,0.0
1602,4.3097515337895365,0.0
1603,-2.980959465514677,0.0
1604,1.4976810494329476,0.0
1605,-0.7586636070986468,0.0
1606,0.29444295982910673,0.0
1607,-0.15949665441067745,0.0
1608,0.020784590645644682,0.0
1609,-0.13938414946462163,0.0
1610,0.0006693236004154945,0.0
1611,-0.015235181963064462,0.0
1612,0.049435591607147264,0.0
1613,-0.04103129530927471,0.0
1614,-0.09591779398064795,0.0
1615,0.07694593159095034,0.0
1616,0.0005940139285229504,0.0
1617,1.329244108749976,0.0
1618,6.688402233557826,0.0
1619,0.7795080843129494,0.0
1620,-1.5241325900260034,0.0
1621,1.0133453962298669,0.0
1622,-0.6204028300458477,0.0
1623,0.16791595157412537,0.0
1624,-0.1306467166211063,0.0
1625,0.0013472650931986227,0.0
1626,-0.04587070836839634,0.0
1627,-0.020476660854706907,0.0
1628,-0.022076457971518075,0.0
1629,-0.0341771155825996,0.0
1630,-0.10074282765768448,0.0
1631,-0.04592010554678522,0.0
1632,-0.053365193739314205,0.0
1633,0.030726801076253883,0.0
1634,2.90747382356351,0.0
1635,6.633519016371116,0.0
1636,-2.2936587008511546,0.0
1637,0.454246403153852,0.0
1638,-0.24425237016574175,0.0
1639,-0.11890574767593526,0.0
1640,-0.13841262114498834,0.0
1641,-0.11900829157163972,0.0
1642,-0.08636746066270447,0.0
1643,-0.10143002774515095,0.0
1644,-0.1774744247760295,0.0
1645,-0.12088961123763706,0.0
1646,-0.10435069193121543,0.0
1647,-0.17287633615962633,0.0
1648,-0.12153214852595504,0.0
1649,-0.17814240434658984,0.0
1650,0.21694038322833512,0.0
1651,4.999193170229567,0.0
1652,4.2419981290081115,0.0
1653,-3.0578898811412296,0.0
1654,1.4944189397014829,0.0
1655,-0.9019910145189803,0.0
1656,0.23739517128951856,0.0
1657,-0.1430355899750151,0.0
1658,0.01407241791190874,0.0
1659,-0.07836053886503663,0.0
1660,-0.057006798777091944,0.0
1661,-0.014023354825435652,0.0
1662,-0.12348572108021572,0.0
1663,-0.17589898141998503,0.0
1664,-0.05973655723528871,0.0
1665,-0.11477783577717451,0.0
1666,-0.09846639727381504,0.0
1667,1.254504743334119,0.0
1668,6.598198433539543,0.0
1669,0.7363357676295692,0.0
1670,-1.549667675105879,0.0
1671,1.0117587267014911,0.0
1672,-0.6477826154276256,0.0
1673,0.19978988799057773,0.0
1674,-0.07103735808871975,0.0
1675,0.030725182454906477,0.0
1676,0.006196513484690573,0.0
1677,-0.15048646011094688,0.0
1678,-0.07132111557710816,0.0
1679,-0.047851422228487824,0.0
1680,0.036715598637000545,0.0
1681,-0.01394887441151272,0.0
1682,-0.11842478483683018,0.0
1683,-0.03779895358967089,0.0
1684,2.8087888528671585,0.0
1685,6.5962199901650145,0.0
1686,-2.340276123788044,0.0
1687,0.49596620864811813,0.0
1688,-0.1319362888126611,0.0
1689,-0.023623205918097398,0.0
1690,-0.08434598717442236,0.0
1691,0.02723263472912686,0.0
1692,-0.12234242623875471,0.0
1693,-0.12024227052513146,0.0
1694,-0.02680242612163882,0.0
1695,-0.1076538566759866,0.0
1696,-0.09752913640832875,0.0
1697,-0.04165623145897675,0.0
1698,-0.12533784257631686,0.0
1699,-0.0688885092052751,0.0
1700,0.3173730136089209,0.0
1701,5.024022254463461,0.0
1702,4.286791794476124,0.0
1703,-2.993706859062228,0.0
1704,1.6039288042369848,0.0
1705,-0.7997470874074888,0.0
1706,0.29510064923760554,0.0
1707,-0.17512190596090868,0.0
1708,-0.025297217310132132,0.0
1709,-0.013297088035992513,0.0
1710,-0.06135622408099924,0.0
1711,0.041903983946700044,0.0
1712,-0.0315240940525057,0.0
1713,-0.030511211646125032,0.0
1714,0.06868281062258427,0.0
1715,0.0058299851611679394,0.0
1716,-0.03169693108535475,0.0
1717,1.2420289550683863,0.0
1718,6.705239717643072,0.0
1719,0.7143422258407012,0.0
1720,-1.503289378952643,0.0
1721,1.070828363182443,0.0
1722,-0.47119051882728497,0.0
1723,0.27436747287282864,0.0
1724,-0.05534848257347299,0.0
1725,0.03464100277566486,0.0
1726,0.00739931079368078,0.0
1727,-0.049112820813433544,0.0
1728,-0.08441298905874678,0.0
1729,-0.058769020233698094,0.0
1730,-0.0773761068385638,0.0
1731,0.05516538600058737,0.0
1732,-0.026313571624415465,0.0
1733,0.0009804680489334562,0.0
1734,2.9162484963312396,0.0
1735,6.550563185531558,0.0
1736,-2.353659629158643,0.0
1737,0.5300815960467381,0.0
1738,-0.14630508450853436,0.0
1739,0.024450954382963234,0.0
1740,-0.06931574432787402,0.0
1741,-0.09607506109163824,0.0
1742,0.026638713130471135,0.0
1743,-0.13753257174737132,0.0
1744,-0.046885624333178784,0.0
1745,-0.05290770770234118,0.0
1746,-0.08088104484183065,0.0
1747,-0.10429347456110133,0.0
1748,0.029282781496332698,0.0
1749,-0.035575178122731185,0.0
1750,0.40975599217070785,0.0
1751,5.158872159128435,0.0
1752,4.229683348976568,0.0
1753,-2.848003255547947,0.0
1754,1.586327539318372,0.0
1755,-0.8139100992393875,0.0
1756,0.4037797273885193,0.0
1757,-0.1519264720063252,0.0
1758,0.014808708462325619,0.0
1759,0.02562185979696937,0.0
1760,0.025539747147489435,0.0
1761,0.022707521554964083,0.0
1762,-0.05698364873133008,0.0
1763,-0.02738925181980261,0.0
1764,0.005345844565170146,0.0
1765,-0.03342974375454727,0.0
1766,0.04203045474430244,0.0
1767,1.2464833305052787,0.0
1768,6.67211916003209,0.0
1769,0.739183401270444,0.0
1770,-1.5305245995208347,0.0
1771,1.093048717486071,0.0
1772,-0.5473244459359281,0.0
1773,0.17545685620739987,0.0
1774,-0.18250751929210413,0.0
1775,0.04106298515253951,0.0
1776,-0.0416958452369766,0.0
1777,-0.08237275268837113,0.0
1778,-0.10343361501638297,0.0
1779,0.03666999548997056,0.0
1780,-0.043941854245111406,0.0
1781,-0.06758524149537605,0.0
1782,-0.0030389861127614985,0.0
1783,0.07096340148792665,0.0
1784,2.945789844902271,0.0
1785,6.654786024025388,0.0
1786,-2.37129955737491,0.0
1787,0.5993648316702703,0.0
1788,-0.11818878878327133,0.0
1789,0.007178936921697989,0.0
1790,-0.11600708567450987,0.0
1791,-0.0021386490129803866,0.0
1792,-0.014397584010059812,0.0
1793,-0.02650792338221014,0.0
1794,-0.025458715452988702,0.0
1795,0.049924989585525714,0.0
1796,-0.05587468479400107,0.0
1797,-0.05966346031842727,0.0
1798,-0.06945129252454424,0.0
1799,-0.09783312432185481,0.0
1800,0.26405285089068437,0.0
1801,4.968548550292457,0.0
1802,4.140967467683185,0.0
1803,-3.024781634485458,0.0
1804,1.5048005366660628,0.0
1805,-0.8988374380902896,0.0
1806,0.20706523625095352,0.0
1807,-0.11211767007606122,0.0
1808,0.005684860581527302,0.0
1809,-0.06171446995813601,0.0
1810,0.08573791702165912,0.0
1811,-0.014599026908044578,0.0
1812,0.0025071874083924597,0.0
1813,0.06399571845850399,0.0
1814,0.004454918741772403,0.0
1815,0.06323994197400569,0.0
1816,0.07222814793563692,0.0
1817,1.2906198877119073,0.0
1818,6.747353870087247,0.0
1819,0.6541945936318148,0.0
1820,-1.504096446235756,0.0
1821,1.1051497086212039,0.0
1822,-0.523149047016725,0.0
1823,0.1679928344945794,0.0
1824,-0.06317875124947472,0.0
1825,0.047338050012074556,0.0
1826,0.05176599340279492,0.0
1827,-0.05793705578377725,0.0
1828,-0.006558920966911356,0.0
1829,0.09530615214922812,0.0
1830,0.013284153729387342,0.0
1831,0.08088950213667373,0.0
1832,0.04276932143138564,0.0
1833,0.04169040863556665,0.0
1834,3.033112802546333,0.0
1835,6.679893430780186,0.0
1836,-2.2980690276244933,0.0
1837,0.5353032171092375,0.0
1838,-0.04708445918419543,0.0
1839,-0.03197095011517326,0.0
1840,0.04966573870061715,0.0
1841,0.12225788110607229,0.0
1842,-0.0635308989132194,0.0
1843,0.034371982484170394,0.0
1844,0.13696773566400935,0.0
1845,0.10137548814965354,0.0
1846,0.06073401768502587,0.0
1847,-0.02695900585438067,0.0
1848,-0.07286145462725097,0.0
1849,-0.040192080064503796,0.0
1850,0.3394649519691513,0.0
1851,5.132036440150054,0.0
1852,4.299553816792884,0.0
1853,-2.886825636100482,0.0
1854,1.544931498073094,0.0
1855,-0.6969428032601462,0.0
1856,0.28615647491614965,0.0
1857,-0.16129625221456184,0.0
1858,0.022750827401999477,0.0
1859,0.04895325033795112,0.0
1860,0.03660385071367439,0.0
1861,0.05894673603232045,0.0
1862,0.10345878928094679,0.0
1863,-0.02657728902806987,0.0
1864,0.13897645741921633,0.0
1865,-0.01744367468715078,0.0
1866,0.025249948269167346,0.0
1867,1.3038380162057526,0.0
1868,6.790805579294943,0.0
1869,0.7373358137791164,0.0
1870,-1.510370565601788,0.0
1871,1.0576043367936896,0.0
1872,-0.5052782555385802,0.0
1873,0.2584843385271235,0.0
1874,-0.06700700157852274,0.0
1875,0.033824264160444414,0.0
1876,0.09562184276820536,0.0
1877,-0.0057206609326100125,0.0
1878,0.015873579692346408,0.0
1879,-0.09263446595901301,0.0
1880,0.013076150319910215,0.0
1881,-0.00882796084079646,0.0
1882,0.03376946376182622,0.0
1883,0.014310270810876678,0.0
1884,3.101428526783425,0.0
1885,6.5807547158681725,0.0
1886,-2.3371363759984907,0.0
1887,0.6598381854243507,0.0
1888,-0.07383241110526576,0.0
1889,0.050573411996132245,0.0
1890,0.11482863434034969,0.0
1891,0.03205321090117812,0.0
1892,-0.026238509848789424,0.0
1893,-0.07738919406998124,0.0
1894,-0.0032241809076308543,0.0
1895,-0.02457823607414094,0.0
1896,-0.04545915698296571,0.0
1897,-0.033005104771811025,0.0
1898,-0.03538372044014389,0.0
1899,-0.03980885096715096,0.0
1900,0.3549240551519534,0.0
1901,5.023708354947993,0.0
1902,4.176256546056134,0.0
1903,-2.9937156654618353,0.0
1904,1.5334943460077501,0.0
1905,-0.8310424913066993,0.0
1906,0.30145563295803424,0.0
1907,-0.0820832550627845,0.0
1908,0.06344329957359238,0.0
1909,0.004773619950104514,0.0
1910,0.01103668316773132,0.0
1911,-0.033285549624937544,0.0
1912,0.03775744656659462,0.0
1913,0.14131707145679773,0.0
1914,0.07116945467116194,0.0
1915,0.06479951418360855,0.0
1916,-0.0985736166359755,0.0
1917,1.2412256248340323,0.0
1918,6.852156201460957,0.0
1919,0.613450625276606,0.0
1920,-1.3261585142852708,0.0
1921,0.9881510797198544,0.0
1922,-0.4769760679009764,0.0
1923,0.2343073823694301,0.0
1924,-0.04456710807353237,0.0
1925,0.1168895999987801,0.0
1926,0.013588513198856957,0.0
1927,0.02657197716700821,0.0
1928,0.015615741279429237,0.0
1929,0.05759033155402224,0.0
1930,0.07910877828161364,0.0
1931,0.004835130491371181,0.0
1932,0.08056259969589208,0.0
1933,0.045485187714670416,0.0
1934,2.973740473389074,0.0
1935,6.692001914280242,0.0
1936,-2.289656450778267,0.0
1937,0.7172292266453913,0.0
1938,-0.08725472299507878,0.0
1939,0.010903760231976561,0.0
1940,0.06016950529042553,0.0
1941,0.0780459212099526,0.0
1942,0.04384770811485012,0.0
1943,0.08788396487542816,0.0
1944,-0.02000679733720355,0.0
1945,0.09086244991711717,0.0
1946,0.030098450414304805,0.0
1947,0.08306947666990858,0.0
1948,-0.0723582026808238,0.0
1949,0.037245217507843265,0.0
1950,0.580262153517058,0.0
1951,5.08276108870493,0.0
1952,4.3214378002072005,0.0
1953,-2.8577767614982346,0.0
1954,1.638193788302474,0.0
1955,-0.6874949081748502,0.0
1956,0.4086601579587273,0.0
1957,-0.06954142979296973,0.0
1958,0.0781243211310481,0.0
1959,-0.011748079010894086,0.0
1960,-0.012737275927324848,0.0
1961,0.03470465917973348,0.0
1962,0.0006421972267981538,0.0
1963,-0.0161470592287807,0.0
1964,0.021791883865154987,0.0
1965,0.12948887275675303,0.0
1966,0.06856043723674764,0.0
1967,1.356229841338955,0.0
1968,6.761812292694476,0.0
1969,0.6634016115391773,0.0
1970,-1.2955724341516979,0.0
1971,1.0100702341656582,0.0
1972,-0.5091583022441992,0.0
1973,0.3096802451676599,0.0
1974,-0.030959748570628106,0.0
1975,0.018147608971743286,0.0
1976,-0.038014249797720986,0.0
1977,-0.01953252896448881,0.0
1978,0.0014767703041061106,0.0
1979,-0.02033779511031186,0.0
1980,0.030323930385449303,0.0
1981,0.031865406944692046,0.0
1982,0.02419409684966915,0.0
1983,0.0036488868368522998,0.0
1984,3.0070470703098615,0.0
1985,6.595550523312566,0.0
1986,-2.2954899806741094,0.0
1987,0.6879595465853557,0.0
1988,-0.07044990423142489,0.0
1989,0.026808811151707457,0.0
1990,-0.11754912362745568,0.0
1991,0.07016720478448496,0.0
1992,0.05714688577355568,0.0
1993,0.0381786180002404,0.0
1994,0.0035088588431248886,0.0
1995,-0.11281598818595662,0.0
1996,0.033594788530954024,0.0
1997,-0.05879073084651634,0.0
1998,-0.05868399994702948,0.0
1999,-0.02326905630101378,0.0
2000,0.440316066440284,0.0
2001,5.108622074641351,0.0
2002,4.215848857376206,0.0
2003,-2.9736051274405786,0.0
2004,1.5684145224189876,0.0
2005,-0.7441507028819809,0.0
2006,0.37540771914559246,0.0
2007,-0.13377693020589676,0.0
2008,0.07758334736861115,0.0
2009,0.0022244918951085987,0.0
2010,0.020518430715221324,0.0
2011,0.008758183783328061,0.0
2012,0.08018186393015528,0.0
2013,-0.040546880096727446,0.0
2014,0.08639163194850857,0.0
2015,0.06877360063317506,0.0
2016,0.08414502834357031,0.0
2017,1.3270593991933604,0.0
2018,6.84412477422278,0.0
2019,0.6557161145881765,0.0
2020,-1.4627698158572928,0.0
2021,1.1296905711274705,0.0
2022,-0.3822866917236596,0.0
2023,0.3240708656816723,0.0
2024,-0.03736124454532515,0.0
2025,-0.009683740678933812,0.0
2026,0.018024507493166662,0.0
2027,0.029229167095419194,0.0
2028,-0.05514804658892156,0.0
2029,0.028200398990346816,0.0
2030,-0.04172039918269492,0.0
2031,0.010707268993913508,0.0
2032,-0.04973785185829073,0.0
2033,-0.04779743372714759,0.0
2034,3.0166601390666994,0.0
2035,6.617280742413851,0.0
2036,-2.3619032178532784,0.0
2037,0.6894884348048164,0.0
2038,-0.20950959075312198,0.0
2039,0.07516590358883185,0.0
2040,0.015239859903761026,0.0
2041,0.047912631544614406,0.0
2042,-0.05788694929597361,0.0
2043,-0.008644499243338068,0.0
2044,0.05010739940404699,0.0
2045,0.09892801237388588,0.0
2046,0.04080271205224667,0.0
2047,-0.030203504593013044,0.0
2048,0.032240076557263714,0.0
2049,0.03231312943212265,0.0
2050,0.43544180194960536,0.0
2051,5.244808635101905,0.0
2052,4.1316839379078285,0.0
2053,-2.7826286704882395,0.0
2054,1.6409418768288193,0.0
2055,-0.6417768649247985,0.0
2056,0.38305323949246817,0.0
2057,0.006805804394577779,0.0
2058,0.10619910907326939,0.0
2059,0.0767374361589287,0.0
2060,0.050586859466792596,0.0
2061,0.11209036216349681,0.0
2062,0.007888147283472924,0.0
2063,0.07395867131857822,0.0
2064,0.0020099950805560762,0.0
2065,0.04623735098851227,0.0
2066,0.01474022721493554,0.0
2067,1.368952673650089,0.0
2068,6.731635719949947,0.0
2069,0.5346182029220585,0.0
2070,-1.3798853465836698,0.0
2071,1.0144341057176027,0.0
2072,-0.48916921957962334,0.0
2073,0.15756802282556298,0.0
2074,-0.0688480570316044,0.0
2075,0.0702105086050876,0.0
2076,0.022123815490355237,0.0
2077,0.08950116358770999,0.0
2078,0.10099470947158182,0.0
2079,-0.05760991598974501,0.0
2080,0.052391261413427245,0.0
2081,0.04408706374411826,0.0
2082,0.10123854336009418,0.0
2083,0.0922334342396957,0.0
2084,3.1083941899353564,0.0
2085,6.7024214031407245,0.0
2086,-2.340314492298422,0.0
2087,0.8630978217840267,0.0
2088,-0.12240929667445019,0.0
2089,0.23037519302003623,0.0
2090,0.03206758740902617,0.0
2091,-0.05127079485500628,0.0
2092,-0.02882807407737198,0.0
2093,0.09413730545634785,0.0
2094,0.07595991122598092,0.0
2095,0.1383407805072552,0.0
2096,0.008712906456425657,0.0
2097,0.09331440187967512,0.0
2098,-0.009896967316364177,0.0
2099,0.08707125158749868,0.0
2100,0.4695725482335404,0.0
2101,5.195154964330652,0.0
2102,4.147157816204964,0.0
2103,-2.874294103963653,0.0
2104,1.5666277485136866,0.0
2105,-0.6866304358503457,0.0
2106,0.33967548549573406,0.0
2107,-0.07146103795606168,0.0
2108,-0.023604246702630255,0.0
2109,-0.05807317437501807,0.0
2110,-0.006926360242981431,0.0
2111,-0.06066879328915913,0.0
2112,-0.03301624441046347,0.0
2113,-0.03769429375316999,0.0
2114,-0.0024416492008534994,0.0
2115,0.008686717837842797,0.0
2116,-0.013592529816821096,0.0
2117,1.2822657496085534,0.0
2118,6.791694489359171,0.0
2119,0.4931709329483191,0.0
2120,-1.3297083944090695,0.0
2121,1.02302916573332,0.0
2122,-0.4128835656231045,0.0
2123,0.29652520871925275,0.0
2124,-0.06921156265287165,0.0
2125,0.02784693549822019,0.0
2126,-0.025274690751005177,0.0
2127,-0.0864139342392453,0.0
2128,0.022988251805621685,0.0
2129,0.1987481916650807,0.0
2130,0.027646977237978855,0.0
2131,-0.008816456041253024,0.0
2132,0.1625003895754466,0.0
2133,0.048330550456990966,0.0
2134,3.0884760760852554,0.0
2135,6.547286818949064,0.0
2136,-2.2723874365235313,0.0
2137,0.8008982950229802,0.0
2138,-0.012464983872102292,0.0
2139,-0.01273410181061578,0.0
2140,0.13077838475702463,0.0
2141,0.13033470946545397,0.0
2142,0.04960152023711426,0.0
2143,0.1871543758664163,0.0
2144,0.08849828718227686,0.0
2145,0.020648795402612247,0.0
2146,0.10198044715296194,0.0
2147,0.01634562578412506,0.0
2148,0.167639158060019,0.0
2149,0.07775276631431169,0.0
2150,0.538168915136446,0.0
2151,5.183856539051911,0.0
2152,4.11471998272079,0.0
2153,-2.950729376320183,0.0
2154,1.534538490809949,0.0
2155,-0.8003903756370585,0.0
2156,0.4502539445990371,0.0
2157,-0.10061366136696491,0.0
2158,0.0633469270298431,0.0
2159,0.009544455069861879,0.0
2160,-0.006094092668338089,0.0
2161,0.024225815040986212,0.0
2162,0.02793268577846153,0.0
2163,0.007652862242676396,0.0
2164,-0.002378110696980247,0.0
2165,0.046140308758317594,0.0
2166,0.015627780607058706,0.0
2167,1.3863742452272005,0.0
2168,6.79940820549729,0.0
2169,0.5398075661305417,0.0
2170,-1.3803102299747998,0.0
2171,0.9232661647544749,0.0
2172,-0.5145915928420821,0.0
2173,0.22251343808467047,0.0
2174,-0.1402676295648397,0.0
2175,-0.0033042950129155875,0.0
2176,0.0622144579595751,0.0
2177,-0.055924928936521956,0.0
2178,0.022867291784582695,0.0
2179,-0.010583674144518232,0.0
2180,0.10058437785561068,0.0
2181,0.03013035406880124,0.0
2182,0.04577371435864574,0.0
2183,0.06816636336752041,0.0
2184,3.1102537938129933,0.0
2185,6.537244666572928,0.0
2186,-2.422558774110905,0.0
2187,0.6832996358137767,0.0
2188,-0.07666715394533216,0.0
2189,0.14556926014183041,0.0
2190,-0.08717128946084435,0.0
2191,0.061057576833692756,0.0
2192,-0.02652232736962902,0.0
2193,0.010097967453453097,0.0
2194,0.1227090491039454,0.0
2195,-0.03192089354073352,0.0
2196,-0.024882206085936914,0.0
2197,-0.04452764868035365,0.0
2198,-0.033466642132956574,0.0
2199,-0.053434663246042416,0.0
2200,0.37323041821843167,0.0
2201,5.125428360804213,0.0
2202,4.085899277355723,0.0
2203,-2.9098730042546714,0.0
2204,1.5520885536970181,0.0
2205,-0.8287951169342521,0.0
2206,0.26865854662876676,0.0
2207,-0.10442577845580842,0.0
2208,-0.060208254825492746,0.0
2209,-0.01917567645490984,0.0
2210,-0.0611720993532303,0.0
2211,0.04565233605885558,0.0
2212,-0.056120874382284594,0.0
2213,0.019911523623264718,0.0
2214,-0.040359150521092825,0.0
2215,-0.17445728892020285,0.0
2216,0.0031514660489749685,0.0
2217,1.2691459565621304,0.0
2218,6.758529751782834,0.0
2219,0.46481225396604614,0.0
2220,-1.4478177528384966,0.0
2221,0.8822993259885757,0.0
2222,-0.642892021290332,0.0
2223,0.10625266832397834,0.0
2224,-0.07819410479261456,0.0
2225,-0.021260959590962317,0.0
2226,-0.07265821915534583,0.0
2227,-0.04643943159323036,0.0
2228,-0.10923962962034053,0.0
2229,0.09301681694364941,0.0
2230,-0.09917493722693982,0.0
2231,0.03091768391264369,0.0
2232,-0.013455070963355777,0.0
2233,0.0748751722920596,0.0
2234,3.0710441852557984,0.0
2235,6.538851566413764,0.0
2236,-2.5349064863053785,0.0
2237,0.7071295806912126,0.0
2238,-0.09713333742215138,0.0
2239,0.0032206392352984586,0.0
2240,-0.018672329763785134,0.0
2241,-0.03115909371157241,0.0
2242,-0.15482725317114698,0.0
2243,-0.08055912811941657,0.0
2244,0.02941552866645851,0.0
2245,-0.019447377846773563,0.0
2246,-0.12981379456732517,0.0
2247,-0.044469151116764194,0.0
2248,0.004862684288634157,0.0
2249,0.020131141960829796,0.0
2250,0.33269236539398245,0.0
2251,5.139387814190505,0.0
2252,4.049380908243075,0.0
2253,-2.9170075741579606,0.0
2254,1.4888875318736394,0.0
2255,-0.820826737869359,0.0
2256,0.2413540148031343,0.0
2257,-0.19919680752492724,0.0
2258,-0.05269163551183302,0.0
2259,-0.02078448906140823,0.0
2260,-0.01585459029203734,0.0
2261,-0.014616506801341578,0.0
2262,0.01926140269955394,0.0
2263,-0.13778298007971393,0.0
2264,-0.04539590191753179,0.0
2265,-0.0914256169797428,0.0
2266,0.058737375227967695,0.0
2267,1.1823144787416064,0.0
2268,6.690465124640802,0.0
2269,0.42207978193751844,0.0
2270,-1.32605599533053,0.0
2271,0.8766533871278986,0.0
2272,-0.5805651912957506,0.0
2273,0.18673973024541077,0.0
2274,-0.06798652368527842,0.0
2275,0.010173333231803864,0.0
2276,-0.07827843460394537,0.0
2277,0.03384301581293657,0.0
2278,-0.10530782789834335,0.0
2279,-0.017811999233114616,0.0
2280,-0.07697676235052636,0.0
2281,-0.06112517872391881,0.0
2282,0.04300037394961423,0.0
2283,0.13634535226697242,0.0
2284,3.0541655464825936,0.0
2285,6.434573288758853,0.0
2286,-2.40027524589007,0.0
2287,0.6590901167892312,0.0
2288,-0.18955821669388012,0.0
2289,-0.19293994917235657,0.0
2290,-0.15505495730708674,0.0
2291,-0.12960964868503488,0.0
2292,-0.08470814528309102,0.0
2293,-0.09845402548598653,0.0
2294,-0.015265809344614203,0.0
2295,-0.20085465028855223,0.0
2296,-0.04249610921664037,0.0
2297,0.04762892631127021,0.0
2298,-0.05171929617873905,0.0
2299,-0.11206296930813095,0.0
2300,0.4354594393044568,0.0
2301,5.163866253918542,0.0
2302,3.9951665242469474,0.0
2303,-2.855553544577739,0.0
2304,1.511114300578338,0.0
2305,-0.8110303624780977,0.0
2306,0.2370889051041539,0.0
2307,-0.2259270193270977,0.0
2308,0.008833615963062681,0.0
2309,-0.010205214429410095,0.0
2310,-0.06060621392159348,0.0
2311,-0.0786368475841439,0.0
2312,-0.11722531190363741,0.0
2313,-0.11857211249675575,0.0
2314,-0.06357222499109709,0.0
2315,-0.12894869503230505,0.0
2316,-0.09433855472591744,0.0
2317,1.2136299586978523,0.0
2318,6.763751147731929,0.0
2319,0.42684974180285823,0.0
2320,-1.4162310854212405,0.0
2321,0.8753689637461695,0.0
2322,-0.6081265064120276,0.0
2323,0.10361475985204927,0.0
2324,-0.12573952703000346,0.0
2325,-0.04898807229199197,0.0
2326,0.02051821932478872,0.0
2327,-0.05514655922610706,0.0
2328,0.06074505535073372,0.0
2329,-0.07532699050370978,0.0
2330,-0.009038890818902565,0.0
2331,-0.06410704539510212,0.0
2332,-0.07149807001917222,0.0
2333,0.020574553950073852,0.0
2334,3.0678001530655896,0.0
2335,6.446144485116223,0.0
2336,-2.5312224029457355,0.0
2337,0.6387404604871204,0.0
2338,-0.1009768230615622,0.0
2339,0.09605185350207174,0.0
2340,0.0016734642397926297,0.0
2341,-0.028017676945393047,0.0
2342,0.008734902995405781,0.0
2343,-0.10227309731863074,0.0
2344,-0.11335137144272925,0.0
2345,-0.026645177538281963,0.0
2346,-0.10850531423022383,0.0
2347,-0.029400930974400427,0.0
2348,0.014664947418707875,0.0
2349,0.0426022076596108,0.0
2350,0.40494591586751333,0.0
2351,5.25186945481508,0.0
2352,3.99484541023521,0.0
2353,-2.954090429109488,0.0
2354,1.5406426209205493,0.0
2355,-0.8753393319775388,0.0
2356,0.34648605889577805,0.0
2357,-0.22939435292091853,0.0
2358,-0.056531033897702,0.0
2359,-0.064965954367492,0.0
2360,-0.015510692768809321,0.0
2361,-0.11367999900323272,0.0
2362,-0.04850192757906079,0.0
2363,-0.1449202993866329,0.0
2364,-0.11359630298652315,0.0
2365,-0.09521255145071247,0.0
2366,-0.02979653005633259,0.0
2367,1.315442378102745,0.0
2368,6.694901414999597,0.0
2369,0.3669876654173482,0.0
2370,-1.3208980471542575,0.0
2371,0.9457036941865501,0.0
2372,-0.5413642220193756,0.0
2373,0.18159300378514587,0.0
2374,0.03794306022581239,0.0
2375,0.05409859982974233,0.0
2376,0.033340015280861626,0.0
2377,0.04019814220675072,0.0
2378,0.06283604826479172,0.0
2379,0.012549923719594753,0.0
2380,-0.018573497231153247,0.0
2381,-0.0062916673990369605,0.0
2382,0.09105037958140212,0.0
2383,0.18332738022621997,0.0
2384,3.1500053454513806,0.0
2385,6.505108778195338,0.0
2386,-2.464989869601765,0.0
2387,0.7827455672545912,0.0
2388,-0.19515658503893565,0.0
2389,0.04651937357830004,0.0
2390,-0.04382352827841074,0.0
2391,0.07266214235601098,0.0
2392,0.05113898026827735,0.0
2393,0.09936833975364025,0.0
2394,0.013352627670745491,0.0
2395,-0.052250510119031285,0.0
2396,0.027604538578923112,0.0
2397,0.03108981591705105,0.0
2398,0.045666189630244054,0.0
2399,0.03533350411696977,0.0
2400,0.4479500711626138,0.0
2401,5.2457018356755665,0.0
2402,4.045783588089284,0.0
2403,-2.862468549024702,0.0
2404,1.6796876455021554,0.0
2405,-0.7308822276844701,0.0
2406,0.3028176585070255,0.0
2407,-0.11574872374506232,0.0
2408,0.0469571139905518,0.0
2409,0.0062252770489804625,0.0
2410,-0.0036300507390251632,0.0
2411,0.01776646268389877,0.0
2412,-0.047932258773971406,0.0
2413,-0.027886883944868636,0.0
2414,-0.042221799991055665,0.0
2415,0.06511387093288107,0.0
2416,-0.006492633103765591,0.0
2417,1.4268119484238975,0.0
2418,6.8267499565728205,0.0
2419,0.38897700225550425,0.0
2420,-1.2932189388785438,0.0
2421,0.9289639185629037,0.0
2422,-0.4637785489498042,0.0
2423,0.248945710057693,0.0
2424,-0.05509077491159297,0.0
2425,0.04444951592902936,0.0
2426,-0.018306918728599776,0.0
2427,-0.0957853367610164,0.0
2428,0.1330472340503217,0.0
2429,-0.02838680451749847,0.0
2430,0.11851211420699445,0.0
2431,0.037835648517759404,0.0
2432,0.07908667942318862,0.0
2433,0.08100844493723405,0.0
2434,3.1362249983668247,0.0
2435,6.523179468155304,0.0
2436,-2.436175120183369,0.0
2437,0.912131380282146,0.0
2438,-0.25903622009264937,0.0
2439,0.0809567338195506,0.0
2440,-0.04773086254528959,0.0
2441,0.030655605153477705,0.0
2442,-0.03364712344939074,0.0
2443,-0.07970722183979144,0.0
2444,0.06404047499762423,0.0
2445,0.050559365306081294,0.0
2446,-0.040676606627291584,0.0
2447,-0.014248879157134915,0.0
2448,0.010887981513340292,0.0
2449,0.026195517303723975,0.0
2450,0.4731913751012546,0.0
2451,5.345071238845854,0.0
2452,3.9769444074939475,0.0
2453,-2.7850119202334964,0.0
2454,1.6108101906021213,0.0
2455,-0.7308873469412909,0.0
2456,0.3508805544562452,0.0
2457,-0.12012878264707291,0.0
2458,0.02545161175413642,0.0
2459,0.06631277373126512,0.0
2460,0.14478842028674016,0.0
2461,0.06985663751791557,0.0
2462,0.07245835722642761,0.0
2463,0.03577121682112623,0.0
2464,0.10428469216921338,0.0
2465,-0.0009123011533797246,0.0
2466,0.0347903304476702,0.0
2467,1.3869333008939433,0.0
2468,6.727552974650671,0.0
2469,0.27437221694845726,0.0
2470,-1.4156046875135198,0.0
2471,0.8702747520702196,0.0
2472,-0.5122186354730361,0.0
2473,0.1146361135355803,0.0
2474,-0.016660955958274645,0.0
2475,0.01965055868947295,0.0
2476,0.02133238989785863,0.0
2477,0.026411355804203625,0.0
2478,-0.02323749513073215,0.0
2479,-0.034376257849389476,0.0
2480,0.0066628721044777245,0.0
2481,-0.04101943377858584,0.0
2482,-0.050090683240243336,0.0
2483,0.08535397192688324,0.0
2484,3.2409057297196218,0.0
2485,6.492202244873303,0.0
2486,-2.511064060651935,0.0
2487,0.8012692263756594,0.0
2488,-0.19958946679767575,0.0
2489,0.06373345491141566,0.0
2490,0.08596799519350401,0.0
2491,0.03218008137461164,0.0
2492,-0.1140115824939612,0.0
2493,-0.056091369399393826,0.0
2494,-0.035246891158640735,0.0
2495,-0.02576649832387061,0.0
2496,-0.021150925249224333,0.0
2497,-0.02069888962555416,0.0
2498,0.012283188847012419,0.0
2499,-0.09212264961992614,0.0
2500,0.3756747403671625,0.0
2501,5.186270249706915,0.0
2502,3.8928101944024007,0.0
2503,-2.9420702992820957,0.0
2504,1.6132897446929848,0.0
2505,-0.8458012139537827,0.0
2506,0.3163167851111891,0.0
2507,-0.1385647705794756,0.0
2508,0.005810525269049051,0.0
2509,-0.06924186892404635,0.0
2510,0.013621162904955589,0.0
2511,-0.04234680416301735,0.0
2512,-0.03752524743262729,0.0
2513,-0.06953445786532532,0.0
2514,-0.040092904452602204,0.0
2515,-0.03903916426745687,0.0
2516,-0.09411587321185978,0.0
2517,1.456999873622771,0.0
2518,6.8224008293464395,0.0
2519,0.33669419411324436,0.0
2520,-1.273512961294259,0.0
2521,0.8914934413996779,0.0
2522,-0.3901356190113571,0.0
2523,0.1853507259043843,0.0
2524,-0.06732042859911179,0.0
2525,0.058693935935564295,0.0
2526,-0.01193520371652618,0.0
2527,-0.05084369765830366,0.0
2528,-0.1035038640738271,0.0
2529,-0.09321483065221849,0.0
2530,-0.020963059414846538,0.0
2531,-0.03539629155972125,0.0
2532,-0.1448609387603801,0.0
2533,0.02767590512248317,0.0
2534,3.1090918592551504,0.0
2535,6.435211716191085,0.0
2536,-2.5440500877798704,0.0
2537,0.7153256199824172,0.0
2538,-0.260260281204943,0.0
2539,0.05081166776966364,0.0
2540,-0.1090587728596796,0.0
2541,0.018105939305943987,0.0
2542,-0.09579964624957835,0.0
2543,-0.09152790032838849,0.0
2544,-0.1396539430570997,0.0
2545,-0.13846601743782483,0.0
2546,-0.03355592323766603,0.0
2547,-0.05612673635280399,0.0
2548,-0.122568302275786,0.0
2549,-0.07011787085982457,0.0
2550,0.3976660952737301,0.0
2551,5.367618398460243,0.0
2552,3.79712935820244,0.0
2553,-2.9843583596183514,0.0
2554,1.5884971727295012,0.0
2555,-0.8547630197670907,0.0
2556,0.34893366667239833,0.0
2557,-0.14234938931068583,0.0
2558,-0.020116092276830942,0.0
2559,-0.019624366253294653,0.0
2560,-0.08324294470280186,0.0
2561,-0.07720380115892181,0.0
2562,0.004496807781122519,0.0
2563,-0.11314228655986418,0.0
2564,0.05083279793005083,0.0
2565,-0.09116853432793103,0.0
2566,-0.09008920085033265,0.0
2567,1.345749353770297,0.0
2568,6.732690978015928,0.0
2569,0.19841765190559016,0.0
2570,-1.4300296034958444,0.0
2571,0.7828588767930903,0.0
2572,-0.7004904747415861,0.0
2573,0.09418923258144682,0.0
2574,-0.13129847268851344,0.0
2575,-0.045465147351752874,0.0
2576,-0.21767951057359258,0.0
2577,-0.16753987884852203,0.0
2578,-0.048397439564975164,0.0
2579,-0.12061990309438489,0.0
2580,-0.13060954639413358,0.0
2581,-0.14443598201694374,0.0
2582,-0.1662449633749168,0.0
2583,-0.0013523013783033055,0.0
2584,3.06076956060426,0.0
2585,6.488837727664572,0.0
2586,-2.6051389529057727,0.0
2587,0.7011025804070998,0.0
2588,-0.33921119667084254,0.0
2589,-0.09909138925222827,0.0
2590,-0.1504389113610607,0.0
2591,-0.13407389610843473,0.0
2592,-0.09419905557827592,0.0
2593,-0.13359848667442625,0.0
2594,-0.10520590808492196,0.0
2595,-0.17243204811898125,0.0
2596,-0.08835293140995727,0.0
2597,-0.09965559772162379,0.0
2598,-0.09356788617825959,0.0
2599,-0.06857334657614983,0.0
2600,0.34273483320047227,0.0
2601,5.096112944152433,0.0
2602,3.874479917544119,0.0
2603,-2.9121220322671912,0.0
2604,1.457470779692848,0.0
2605,-0.8440238040133357,0.0
2606,0.24280085965397835,0.0
2607,-0.14928053011488163,0.0
2608,-0.08403057287336925,0.0
2609,-0.10078269825529734,0.0
2610,-0.05601250421722994,0.0
2611,-0.23564248542297128,0.0
2612,0.014631959198705968,0.0
2613,-0.017287165544966142,0.0
2614,-0.10081252036759401,0.0
2615,-0.04597858175271665,0.0
2616,-0.05625326685070765,0.0
2617,1.3651209294077706,0.0
2618,6.7935908672394865,0.0
2619,0.2727459454975367,0.0
2620,-1.4222697070493315,0.0
2621,0.9403383042241796,0.0
2622,-0.5213313198465089,0.0
2623,0.16953065247588245,0.0
2624,-0.06804616386531813,0.0
2625,-0.006373057843235087,0.0
2626,-0.043866105192486085,0.0
2627,-0.01367867439948859,0.0
2628,-0.09822635363312268,0.0
2629,0.004654783297641137,0.0
2630,-0.07038221128255114,0.0
2631,-0.08283071042011075,0.0
2632,-0.010149383953774183,0.0
2633,-0.07378609200337041,0.0
2634,3.1373833365288597,0.0
2635,6.4689300506622445,0.0
2636,-2.5663219350519433,0.0
2637,0.6998068669136386,0.0
2638,-0.29873133584709066,0.0
2639,0.06665494062783939,0.0
2640,-0.12452672907539013,0.0
2641,-0.06207072101930917,0.0
2642,-0.14376655613364808,0.0
2643,-0.004352982486890894,0.0
2644,-0.09639081608791553,0.0
2645,-0.012243101176895692,0.0
2646,-0.045144091146561205,0.0
2647,0.025220440661126768,0.0
2648,0.022313097017254306,0.0
2649,-0.10021740591034614,0.0
2650,0.43112468858709585,0.0
2651,5.285348407680949,0.0
2652,3.8391973886398088,0.0
2653,-2.956655628251661,0.0
2654,1.6222396514204407,0.0
2655,-0.89377846918626,0.0
2656,0.4533308357350255,0.0
2657,-0.16046795887649298,0.0
2658,0.01989737420745058,0.0
2659,-0.02886717039276819,0.0
2660,-0.010537249975233398,0.0
2661,0.009981737835051498,0.0
2662,0.021224759444093123,0.0
2663,0.10746917635863838,0.0
2664,-0.018422927990367877,0.0
2665,0.04299020950685044,0.0
2666,-0.10897374136714053,0.0
2667,1.403797569881047,0.0
2668,6.764314497359995,0.0
2669,0.19383890333629944,0.0
2670,-1.2824466590681158,0.0
2671,0.9467528742132685,0.0
2672,-0.4525994635721886,0.0
2673,0.09287797273028812,0.0
2674,-0.06919357058168837,0.0
2675,0.04757461695283641,0.0
2676,-0.024882626481957413,0.0
2677,-0.034899628937481164,0.0
2678,-0.12254349938473423,0.0
2679,0.006775537170207235,0.0
2680,-0.00708468204926526,0.0
2681,0.015520746422734995,0.0
2682,-0.083328611267903,0.0
2683,0.06307844708855052,0.0
2684,3.1897197070431433,0.0
2685,6.464674155582742,0.0
2686,-2.5555402455125154,0.0
2687,0.8423635132171899,0.0
2688,-0.16507534977234806,0.0
2689,0.09420746643841589,0.0
2690,-0.009162752225677955,0.0
2691,0.05073634718710977,0.0
2692,0.06451102913967693,0.0
2693,0.05450898596620717,0.0
2694,0.054098238574406696,0.0
2695,0.04429854457398814,0.0
2696,0.035777120469433044,0.0
2697,0.10675668330382199,0.0
2698,0.0551944731015727,0.0
2699,-0.029199372403309838,0.0
2700,0.4579034458529295,0.0
2701,5.3600472797612095,0.0
2702,3.8997380250708558,0.0
2703,-2.9645793298616985,0.0
2704,1.6114296452565007,0.0
2705,-0.8149464675541984,0.0
2706,0.28267053479797566,0.0
2707,-0.18369516710598965,0.0
2708,0.0468782339396044,0.0
2709,-0.035315238865127205,0.0
2710,-0.005677616871549905,0.0
2711,0.02771798350892499,0.0
2712,-0.027168044280096164,0.0
2713,0.04730276401924742,0.0
2714,-0.011830599632880995,0.0
2715,0.006188717298024985,0.0
2716,0.016706385633984196,0.0
2717,1.4611246331732917,0.0
2718,6.83946955106483,0.0
2719,0.29453556635399775,0.0
2720,-1.239874730765189,0.0
2721,1.007764495828247,0.0
2722,-0.4511550638471826,0.0
2723,0.2705319047647274,0.0
2724,0.05384136792128426,0.0
2725,0.11522635078200838,0.0
2726,-0.03253564704428076,0.0
2727,0.019357499968440744,0.0
2728,-0.012856116011037526,0.0
2729,-0.08233659342292848,0.0
2730,-0.056086055154405144,0.0
2731,0.015548019430237236,0.0
2732,-0.1158325270947186,0.0
2733,0.11356000325310987,0.0
2734,3.2092341283636823,0.0
2735,6.461980980130898,0.0
2736,-2.5727346327941283,0.0
2737,0.9005431308897468,0.0
2738,-0.16852793710596337,0.0
2739,0.13228142730638745,0.0
2740,-0.026037789763315014,0.0
2741,0.05412183034517072,0.0
2742,0.07670697135035488,0.0
2743,0.07991068547899897,0.0
2744,0.03547923028507266,0.0
2745,0.07500257951826872,0.0
2746,-0.008849423344027753,0.0
2747,0.08897123127071419,0.0
2748,0.1337630222287043,0.0
2749,-0.037631884580174045,0.0
2750,0.5136725683035267,0.0
2751,5.477511267831743,0.0
2752,3.7886735569877987,0.0
2753,-2.743077773526236,0.0
2754,1.576405057000659,0.0
2755,-0.8177433819023742,0.0
2756,0.3888632580549319,0.0
2757,-0.1690091381266201,0.0
2758,0.0384891763776294,0.0
2759,-0.039914566808791546,0.0
2760,-0.017620579388114396,0.0
2761,-0.032506630163321136,0.0
2762,-0.02458936863775281,0.0
2763,0.06043414986758835,0.0
2764,-0.004834970050067896,0.0
2765,-0.03293663446954967,0.0
2766,0.03739607838219004,0.0
2767,1.3782580103018174,0.0
2768,6.798397356188021,0.0
2769,0.22189936731675045,0.0
2770,-1.1724906393247523,0.0
2771,0.9163726748242523,0.0
2772,-0.42639862319742505,0.0
2773,0.16472350389502577,0.0
2774,-0.005501862031647535,0.0
2775,0.12394219037640278,0.0
2776,-0.0435984451072104,0.0
2777,0.025184286072031725,0.0
2778,0.11054328868842413,0.0
2779,0.0522036902880581,0.0
2780,0.034664701168798,0.0
2781,-0.027984354921768297,0.0
2782,0.024652656914343825,0.0
2783,0.0961252641984345,0.0
2784,3.261472976351895,0.0
2785,6.458555686883681,0.0
2786,-2.515318540280922,0.0
2787,0.8933390730564733,0.0
2788,-0.18196461996895966,0.0
2789,0.08100297769086827,0.0
2790,0.045987102165937384,0.0
2791,0.04938017509613849,0.0
2792,-0.027792447980557584,0.0
2793,0.06401750292830556,0.0
2794,-0.005483716952386815,0.0
2795,-0.029885225029734733,0.0
2796,-0.01123329339368646,0.0
2797,0.02885659360948907,0.0
2798,-0.0376724159544067,0.0
2799,0.02223866881130488,0.0
2800,0.37879104831838845,0.0
2801,5.303138320116304,0.0
2802,3.8796044916868353,0.0
2803,-2.96790424774507,0.0
2804,1.6501762079823235,0.0
2805,-0.7407744451257928,0.0
2806,0.367180938593339,0.0
2807,-0.01298132841713906,0.0
2808,0.05427828576767364,0.0
2809,0.061264362750837895,0.0
2810,0.00932320672427829,0.0
2811,0.10982505809443245,0.0
2812,0.08918759528718734,0.0
2813,0.08595495926813057,0.0
2814,0.02835999390814334,0.0
2815,-0.004811973605564665,0.0
2816,-0.0445462227984942,0.0
2817,1.5036908443534125,0.0
2818,6.813736928484139,0.0
2819,0.11138555420848313,0.0
2820,-1.252910576171329,0.0
2821,0.8377293443464806,0.0
2822,-0.5229008035114086,0.0
2823,0.1982983910775868,0.0
2824,-0.15380885808266895,0.0
2825,-0.04260651495344291,0.0
2826,-0.02707388175410053,0.0
2827,-0.04016610810771057,0.0
2828,-0.04292834970135533,0.0
2829,0.028788324216488758,0.0
2830,-0.04525186506392951,0.0
2831,-0.004396533764502085,0.0
2832,0.03279746716775177,0.0
2833,0.12125923640673776,0.0
2834,3.192388644386232,0.0
2835,6.477833432505874,0.0
2836,-2.650700815040272,0.0
2837,0.8156870996583077,0.0
2838,-0.2888400958539597,0.0
2839,-0.07573486984141103,0.0
2840,-0.05025718814566403,0.0
2841,0.0029500116564937263,0.0
2842,-0.04638215288220189,0.0
2843,-0.10104284589065204,0.0
2844,0.01165347235032635,0.0
2845,0.0003249206080958786,0.0
2846,-0.03799946452615996,0.0
2847,0.022624866019410373,0.0
2848,-0.021038454041800617,0.0
2849,-0.16116845114895686,0.0
2850,0.45651008217755584,0.0
2851,5.453439262759705,0.0
2852,3.7928901199285283,0.0
2853,-2.8544173062894695,0.0
2854,1.631257145417667,0.0
2855,-0.8278817539345632,0.0
2856,0.25815446639869133,0.0
2857,-0.21593986727214434,0.0
2858,-0.024871909880974128,0.0
2859,-0.01706641244158637,0.0
2860,-0.010217145871143786,0.0
2861,-0.12838271481349967,0.0
2862,-0.06238602342193504,0.0
2863,-0.049393760158976355,0.0
2864,-0.047883014267340734,0.0
2865,-0.03775204695214068,0.0
2866,-0.08295125084891602,0.0
2867,1.4309811087442899,0.0
2868,6.788691639387603,0.0
2869,0.16174828106947475,0.0
2870,-1.2488144188627803,0.0
2871,0.8950191854180706,0.0
2872,-0.44134766782895496,0.0
2873,0.19017580241308152,0.0
2874,-0.03297546014132587,0.0
2875,-0.0015213042031905514,0.0
2876,-0.014248090617993875,0.0
2877,0.02108451874722423,0.0
2878,0.06908527247802498,0.0
2879,-0.002448494914939519,0.0
2880,0.03633348356578141,0.0
2881,0.07608121019195041,0.0
2882,-0.05817798181886784,0.0
2883,0.027875103301849932,0.0
2884,3.2728382500031135,0.0
2885,6.505722766013573,0.0
2886,-2.657583619938108,0.0
2887,0.9056846487351591,0.0
2888,-0.2392382548618109,0.0
2889,0.04036168804655743,0.0
2890,-0.03639144453332982,0.0
2891,-0.04349256339207146,0.0
2892,-0.026113553785257967,0.0
2893,0.05770684103658541,0.0
2894,-0.02498487461869399,0.0
2895,-0.08551162148391635,0.0
2896,-0.04337673045841517,0.0
2897,0.05582458403866643,0.0
2898,-0.011935167456479004,0.0
2899,0.07033661307481764,0.0
2900,0.42201202339929983,0.0
2901,5.540711355459439,0.0
2902,3.8067374554646567,0.0
2903,-2.742961826442841,0.0
2904,1.6594434101131101,0.0
2905,-0.823165144881014,0.0
2906,0.39523048525286586,0.0
2907,0.09056233462369083,0.0
2908,0.1163953537966749,0.0
2909,0.0006465508566515024,0.0
2910,0.10935492531117141,0.0
2911,0.045472085580164315,0.0
2912,-0.007051036121228406,0.0
2913,-0.002647902245632633,0.0
2914,0.024077128759115884,0.0
2915,0.07441832507718607,0.0
2916,0.01588718437052657,0.0
2917,1.4128646750499472,0.0
2918,6.890650506032778,0.0
2919,0.10251440400376644,0.0
2920,-1.1727514909483687,0.0
2921,0.8477184906593273,0.0
2922,-0.3882407315223311,0.0
2923,0.17188778774866098,0.0
2924,-0.11529589728331074,0.0
2925,-0.09632944920932353,0.0
2926,-0.03635583570383155,0.0
2927,-0.00846348551241366,0.0
2928,-0.051909072268107634,0.0
2929,-0.016917614849566748,0.0
2930,0.07677661748751466,0.0
2931,0.007095140067406174,0.0
2932,-0.041455332859099046,0.0
2933,0.04188720220816543,0.0
2934,3.291785544601082,0.0
2935,6.386267053528293,0.0
2936,-2.6000114562294194,0.0
2937,0.9505229675792763,0.0
2938,-0.2860551215492394,0.0
2939,0.07317583174655518,0.0
2940,-0.03440375991894821,0.0
2941,0.0347939278401773,0.0
2942,-0.01734015464817505,0.0
2943,-0.1155316024564575,0.0
2944,-0.01624655670072358,0.0
2945,0.04677942714649197,0.0
2946,0.044526356361226295,0.0
2947,0.11919368684831708,0.0
2948,-0.036244349062703005,0.0
2949,0.03800123627822519,0.0
2950,0.43524580929208956,0.0
2951,5.340946373033153,0.0
2952,3.684873289326383,0.0
2953,-2.7981991071884273,0.0
2954,1.502843036892077,0.0
2955,-0.801389671526864,0.0
2956,0.2818436889453401,0.0
2957,-0.15677088454224802,0.0
2958,-0.010347491022333413,0.0
2959,-0.04208616674789826,0.0
2960,-0.003435499089443593,0.0
2961,-0.01389295063913142,0.0
2962,0.0032751641336223256,0.0
2963,-0.03442543906321164,0.0
2964,0.04756710434252171,0.0
2965,-0.04690597852148844,0.0
2966,-0.0062138114613042176,0.0
2967,1.4702745227046454,0.0
2968,6.830790184398864,0.0
2969,0.03135253627532003,0.0
2970,-1.1657308578021908,0.0
2971,0.9059969953066316,0.0
2972,-0.4179145347291435,0.0
2973,0.14515204772349186,0.0
2974,-0.03233536168966697,0.0
2975,0.10947921292296861,0.0
2976,-0.09411960538633302,0.0
2977,-0.07059178048553935,0.0
2978,-0.03296910584747814,0.0
2979,-0.005869274219691328,0.0
2980,-0.04116446305817893,0.0
2981,-0.05350717788098938,0.0
2982,-0.06583044548258044,0.0
2983,0.050554694125815064,0.0
2984,3.230991034022877,0.0
2985,6.470067847733419,0.0
2986,-2.6748605979393503,0.0
2987,0.8861352020806136,0.0
2988,-0.29647328462783523,0.0
2989,-0.013861973234134281,0.0
2990,-0.12413005862384216,0.0
2991,-0.13423843574514763,0.0
2992,-0.0096362010810681,0.0
2993,-0.08107746888391609,0.0
2994,-0.09268881311302044,0.0
2995,-0.0482683933303259,0.0
2996,-0.07862991406122213,0.0
2997,-0.053767396938971465,0.0
2998,-0.001339522660838116,0.0
2999,-0.1794521662638347,0.0
3000,0.35735049332402224,0.0
3001,5.375302610419747,0.0
3002,3.710818566030066,0.0
3003,-3.0009966211410966,0.0
3004,1.504462929562686,0.0
3005,-0.9390150704402398,0.0
3006,0.27888205462826066,0.0
3007,-0.12469337483395321,0.0
3008,-0.0006893770200330392,0.0
3009,-0.10601949940215337,0.0
3010,-0.02506524273209452,0.0
3011,-0.09890052547939768,0.0
3012,-0.023453477296816714,0.0
3013,-0.057261220688232264,0.0
3014,-0.07954230438866089,0.0
3015,0.04721149373235302,0.0
3016,-0.22321425149255675,0.0
3017,1.4818899383550126,0.0
3018,6.798144282784715,0.0
3019,0.05595955367549644,0.0
3020,-1.1859685743245696,0.0
3021,0.8158301210970608,0.0
3022,-0.5262845107077239,0.0
3023,0.21826573280374917,0.0
3024,-0.16098727796119272,0.0
3025,0.043093030098940895,0.0
3026,-0.12131647963816505,0.0
3027,-0.16594058414672158,0.0
3028,-0.13443260068410565,0.0
3029,-0.02401854129038456,0.0
3030,0.003313099950459225,0.0
3031,-0.030456527517305473,0.0
3032,-0.033942444636887316,0.0
3033,0.019327998287313564,0.0
3034,3.225156325277176,0.0
3035,6.317520353652051,0.0
3036,-2.634083131549011,0.0
3037,0.828906812365705,0.0
3038,-0.28141362407711035,0.0
3039,0.03969360967939941,0.0
3040,-0.09576992526962169,0.0
3041,-0.012453007001712313,0.0
3042,-0.07308254980449386,0.0
3043,-0.11149533245575152,0.0
3044,-0.0439675978911427,0.0
3045,-0.041071662587165256,0.0
3046,-0.08938525322373156,0.0
3047,0.03420488687292953,0.0
3048,-0.05962960927001695,0.0
3049,-0.07191999027976033,0.0
3050,0.37672223036001384,0.0
3051,5.458874192715816,0.0
3052,3.7266843203117923,0.0
3053,-2.888046755563219,0.0
3054,1.47186116755127,0.0
3055,-0.9277700300735379,0.0
3056,0.307533013795131,0.0
3057,-0.13977715368075538,0.0
3058,-0.06713019365425207,0.0
3059,-0.08919376464522846,0.0
3060,-0.030933916486384994,0.0
3061,-0.11233966218849982,0.0
3062,-0.13336865778012222,0.0
3063,-0.02972077225400599,0.0
3064,-0.11207373059959505,0.0
3065,-0.08256930671358725,0.0
3066,-0.030542653084660646,0.0
3067,1.4433770893422158,0.0
3068,6.779533776689597,0.0
3069,0.04629339855677673,0.0
3070,-1.2521950268510906,0.0
3071,0.7773078595551981,0.0
3072,-0.5185731172222616,0.0
3073,0.18497991834930694,0.0
3074,-0.0998278705057932,0.0
3075,0.03547879046671322,0.0
3076,-0.07326516621536261,0.0
3077,0.019874429767124738,0.0
3078,-0.09190044560792235,0.0
3079,-0.02148129343323768,0.0
3080,-0.08483400792699229,0.0
3081,-0.03590814946670973,0.0
3082,-0.07027466626428508,0.0
3083,-0.025908513243306286,0.0
3084,3.2253004545656436,0.0
3085,6.316256902492655,0.0
3086,-2.741963434022783,0.0
3087,0.7800666721039232,0.0
3088,-0.4154006972289316,0.0
3089,0.004623510219243904,0.0
3090,-0.16589462520187898,0.0
3091,-0.07105479802401185,0.0
3092,-0.07981335573696002,0.0
3093,-0.08069876975703127,0.0
3094,-0.07737296590863654,0.0
3095,0.06098595246730412,0.0
3096,0.037736545062631355,0.0
3097,-0.01811217665421759,0.0
3098,0.019828209497966723,0.0
3099,-0.11958975609268968,0.0
3100,0.5201278133939485,0.0
3101,5.457805697087233,0.0
3102,3.7098258307375973,0.0
3103,-2.8248906972962766,0.0
3104,1.5522247754570386,0.0
3105,-0.7889021302110456,0.0
3106,0.23367064858265313,0.0
3107,-0.12731375613621726,0.0
3108,0.04107769860243314,0.0
3109,-0.13136529936784055,0.0
3110,0.06977538731208013,0.0
3111,-0.19125248717951482,0.0
3112,0.04748433857925602,0.0
3113,-0.015167965619793111,0.0
3114,-0.05585786328634691,0.0
3115,-0.1375760202091646,0.0
3116,-0.168855422129361,0.0
3117,1.4369601036796658,0.0
3118,6.813824598998412,0.0
3119,-0.04807285033709305,0.0
3120,-1.1540850586702078,0.0
3121,0.7570598926313458,0.0
3122,-0.4846187287072258,0.0
3123,0.17361161497743072,0.0
3124,-0.08051491863580049,0.0
3125,-0.05287230070905248,0.0
3126,-0.06448783650387442,0.0
3127,0.045335830235984295,0.0
3128,-0.06105012883286165,0.0
3129,-0.04397547703471974,0.0
3130,0.06379445110340441,0.0
3131,0.10926095272749997,0.0
3132,-0.06867065553432379,0.0
3133,0.1465871476002809,0.0
3134,3.3133502362707636,0.0
3135,6.33583678572066,0.0
3136,-2.6263905616829506,0.0
3137,0.9631817724485747,0.0
3138,-0.30873419856516005,0.0
3139,0.05235366865950324,0.0
3140,0.001132001933433012,0.0
3141,-0.0561347582573546,0.0
3142,-0.008140410524952577,0.0
3143,0.0018203815696314872,0.0
3144,-0.062098304467533685,0.0
3145,0.012446481139044814,0.0
3146,-0.05751338000713733,0.0
3147,-0.0729930442680911,0.0
3148,0.030845218541370085,0.0
3149,0.04540808799032668,0.0
3150,0.4405432327291737,0.0
3151,5.463077430096999,0.0
3152,3.555737474820589,0.0
3153,-2.869583068847957,0.0
3154,1.5095424745935442,0.0
3155,-0.8799896924532642,0.0
3156,0.3848737112704833,0.0
3157,-0.0971203875647983,0.0
3158,0.10267584589973106,0.0
3159,-0.0005915904545776042,0.0
3160,-0.026939852013817173,0.0
3161,-0.054822644241560275,0.0
3162,-0.029611598421415343,0.0
3163,-0.028419914590675964,0.0
3164,-0.04468592319155125,0.0
3165,0.014020400272993793,0.0
3166,-0.0029679876577282938,0.0
3167,1.4921161028975167,0.0
3168,6.889112517695315,0.0
3169,0.008573493049993518,0.0
3170,-1.1003440348671771,0.0
3171,0.7494553996232822,0.0
3172,-0.5046991042483835,0.0
3173,0.24302092480321763,0.0
3174,-0.20417932142220296,0.0
3175,0.02232157869721861,0.0
3176,-0.00830498633462811,0.0
3177,-0.11152552051884328,0.0
3178,0.010664228045415072,0.0
3179,-0.09196760823182047,0.0
3180,-0.13256363941960891,0.0
3181,-0.014620774256380382,0.0
3182,-0.009577554859698769,0.0
3183,0.04384973207795593,0.0
3184,3.2385087398648222,0.0
3185,6.37829643357361,0.0
3186,-2.616017973318037,0.0
3187,0.9332249504984139,0.0
3188,-0.40780437742145675,0.0
3189,0.0821558694073115,0.0
3190,-0.1519520349815231,0.0
3191,0.06377425574464737,0.0
3192,-0.014016693729296118,0.0
3193,-0.0390394634061374,0.0
3194,-0.036333002573418344,0.0
3195,-0.06792045980011047,0.0
3196,-0.11003135968834742,0.0
3197,0.06602198267085876,0.0
3198,0.08424777343122966,0.0
3199,-0.04930409233064921,0.0
3200,0.5612083451914139,0.0
3201,5.432690403727206,0.0
3202,3.693652521620314,0.0
3203,-2.755814724209754,0.0
3204,1.6781229046913397,0.0
3205,-0.7489527143251701,0.0
3206,0.39484419755531486,0.0
3207,-0.1880215011545518,0.0
3208,0.03271402552558454,0.0
3209,0.013258977604084624,0.0
3210,0.0030716394663389997,0.0
3211,0.08055157165758252,0.0
3212,-0.060529814105903995,0.0
3213,0.013042439403815151,0.0
3214,-0.07944282183720022,0.0
3215,-0.03239409427559881,0.0
3216,-0.05031753330997987,0.0
3217,1.5150827238302438,0.0
3218,6.834834407376972,0.0
3219,-0.11562073694329719,0.0
3220,-1.1005874698040015,0.0
3221,0.8035411459397412,0.0
3222,-0.5769567565463964,0.0
3223,0.15494023910084775,0.0
3224,-0.2251510124259385,0.0
3225,-0.03763973724397545,0.0
3226,-0.06788032754905791,0.0
3227,-0.1379157306060194,0.0
3228,-0.08996132375608185,0.0
3229,-0.005368299668739154,0.0
3230,-0.07552054720311298,0.0
3231,-0.0016541886161048989,0.0
3232,0.049209952121526124,0.0
3233,0.07331231425963358,0.0
3234,3.33498378244471,0.0
3235,6.2789635617962904,0.0
3236,-2.732017589267699,0.0
3237,0.9581143256746777,0.0
3238,-0.2566376176904455,0.0
3239,-0.0025562770309576904,0.0
3240,-0.009894635754936008,0.0
3241,0.10557574885259224,0.0
3242,-0.0544732055511844,0.0
3243,0.006204886509369845,0.0
3244,-0.04687826083115045,0.0
3245,-0.07583589576433633,0.0
3246,0.018148612570755115,0.0
3247,-0.055651660354922375,0.0
3248,0.04354987599061217,0.0
3249,0.03036873156477802,0.0
3250,0.401769132946122,0.0
3251,5.473972123571438,0.0
3252,3.6361536523183577,0.0
3253,-2.7894535472625415,0.0
3254,1.445654936474906,0.0
3255,-0.758545224955997,0.0
3256,0.24347927516430695,0.0
3257,-0.07135339831903434,0.0
3258,0.021791680989091095,0.0
3259,-0.04705888819402565,0.0
3260,0.052544262708329,0.0
3261,-0.09664993546330164,0.0
3262,-0.07233679106371145,0.0
3263,-0.03027529074278636,0.0
3264,-0.05443795153789533,0.0
3265,-0.10440008837437195,0.0
3266,-0.07706589524339613,0.0
3267,1.4679814302893996,0.0
3268,6.806938120185753,0.0
3269,-0.11629848481613217,0.0
3270,-1.1756232071655397,0.0
3271,0.6933775347438017,0.0
3272,-0.5356217358347578,0.0
3273,0.053619718684853365,0.0
3274,-0.04962627428164598,0.0
3275,-0.10237525427353325,0.0
3276,-0.16585714943441082,0.0
3277,0.022008058866462378,0.0
3278,-0.11124156331945048,0.0
3279,-0.07089290412355873,0.0
3280,-0.013459054454443967,0.0
3281,-0.0059437436578121255,0.0
3282,-0.042357271698573,0.0
3283,0.04093675769946098,0.0
3284,3.301710168268104,0.0
3285,6.211157172151225,0.0
3286,-2.724289715296627,0.0
3287,0.9301677422758163,0.0
3288,-0.3999826832188931,0.0
3289,-0.09041504142074219,0.0
3290,-0.13611913850625212,0.0
3291,-0.04117563472083527,0.0
3292,-0.009563440442550641,0.0
3293,-0.002430190100153287,0.0
3294,-0.035146674858988244,0.0
3295,-0.08365970431622727,0.0
3296,-0.026147693131184785,0.0
3297,-0.0654915283230089,0.0
3298,-0.08540073691998576,0.0
3299,-0.09975004559004924,0.0
3300,0.40576542396417503,0.0
3301,5.437061789391149,0.0
3302,3.5774384060244344,0.0
3303,-2.832536219161523,0.0
3304,1.5208002270659386,0.0
3305,-0.8027380167147962,0.0
3306,0.3808222917832633,0.0
3307,-0.0802101864644873,0.0
3308,-0.08819648859467401,0.0
3309,-0.03864000827470733,0.0
3310,-0.03971628844115501,0.0
3311,-0.05357142459849162,0.0
3312,-0.010712053892473643,0.0
3313,0.035810326863480756,0.0
3314,-0.031090142647676122,0.0
3315,-0.014564974425226397,0.0
3316,-0.15268551863504187,0.0
3317,1.4606772404306507,0.0
3318,6.751971945712622,0.0
3319,-0.06690991972429551,0.0
3320,-1.0348998296618932,0.0
3321,0.727047192388005,0.0
3322,-0.39959960399898065,0.0
3323,0.15027494629989274,0.0
3324,-0.09623198183781348,0.0
3325,-0.05662017427688058,0.0
3326,-0.14146534863891183,0.0
3327,-0.06233216060805693,0.0
3328,-0.044048060936123304,0.0
3329,-0.02381679834185333,0.0
3330,-0.026196128298365456,0.0
3331,-0.12252864356838196,0.0
3332,-0.006257424157813572,0.0
3333,0.0938722755353673,0.0
3334,3.327567244523125,0.0
3335,6.256989429088552,0.0
3336,-2.7140672298109174,0.0
3337,0.8913861528636542,0.0
3338,-0.3563685683895186,0.0
3339,0.041527925930266274,0.0
3340,-0.11352531825851583,0.0
3341,-0.18336473314210028,0.0
3342,-0.14617989747483123,0.0
3343,-0.07489015204432643,0.0
3344,-0.0442013381952189,0.0
3345,-0.08988073940153568,0.0
3346,-0.022374477477109515,0.0
3347,-0.02730567207855141,0.0
3348,-0.0940710659876061,0.0
3349,-0.07302000405804682,0.0
3350,0.5149248156615676,0.0
3351,5.536887249029011,0.0
3352,3.66640972128981,0.0
3353,-2.837818670212476,0.0
3354,1.5672422365506304,0.0
3355,-0.7340106248690541,0.0
3356,0.22482287571909507,0.0
3357,-0.2610551390826622,0.0
3358,-0.034974762683075436,0.0
3359,-0.020607854130940087,0.0
3360,-0.011594490478823785,0.0
3361,-0.06283217161406646,0.0
3362,-0.05257470375921879,0.0
3363,-0.025538043651754293,0.0
3364,-0.08113429300619183,0.0
3365,-0.07465004999660355,0.0
3366,-0.07264375594010083,0.0
3367,1.4666146932192943,0.0
3368,6.811353111598005,0.0
3369,-0.10415363610343567,0.0
3370,-1.090141035214401,0.0
3371,0.7617467467584976,0.0
3372,-0.39135285429705635,0.0
3373,0.12843370181304362,0.0
3374,-0.12698137668845763,0.0
3375,-0.060334164246817465,0.0
3376,-0.10172173398687354,0.0
3377,-0.017871400697908095,0.0
3378,-0.0015264065996441131,0.0
3379,-0.028881096606262972,0.0
3380,0.0085171983044324,0.0
3381,-0.014524454439517494,0.0
3382,0.0529035233199975,0.0
3383,-0.03695238180165267,0.0
3384,3.3977930750020264,0.0
3385,6.178733831387326,0.0
3386,-2.6942175863729037,0.0
3387,0.9503133596441387,0.0
3388,-0.345710717970412,0.0
3389,0.07479414140071967,0.0
3390,-0.11491404756371769,0.0
3391,0.001652312530367437,0.0
3392,-0.04076870789771402,0.0
3393,0.04527604113069417,0.0
3394,-0.058581779801347184,0.0
3395,0.04069703722725686,0.0
3396,-0.10447201844711125,0.0
3397,-0.060323825684167845,0.0
3398,-0.03215179801045405,0.0
3399,-0.05007007290384404,0.0
3400,0.4935480034221813,0.0
3401,5.460994112703406,0.0
3402,3.5428136335216065,0.0
3403,-2.7963834608242615,0.0
3404,1.626987792089851,0.0
3405,-0.9184483272526107,0.0
3406,0.3105861862718317,0.0
3407,-0.09966391472971722,0.0
3408,0.038122281812159646,0.0
3409,-0.038544624275750554,0.0
3410,-0.05609492568266027,0.0
3411,0.019697007554784735,0.0
3412,-0.0650517199147623,0.0
3413,0.09431699488100846,0.0
3414,0.022417932440833288,0.0
3415,-0.04117812201169593,0.0
3416,0.0029262260721967647,0.0
3417,1.5433659766676513,0.0
3418,6.944578184249368,0.0
3419,-0.10813519853336652,0.0
3420,-1.0652203279564176,0.0
3421,0.7425364034000584,0.0
3422,-0.3589762932830986,0.0
3423,0.19143791848019395,0.0
3424,-0.07539989470648147,0.0
3425,-0.008460241598743184,0.0
3426,0.09237480571652562,0.0
3427,0.04468290617911547,0.0
3428,0.004467529086555781,0.0
3429,0.021516500125072554,0.0
3430,-0.038920428549405583,0.0
3431,-0.01464687663577384,0.0
3432,0.0734337439842939,0.0
3433,0.05820096977204916,0.0
3434,3.4872806940865426,0.0
3435,6.274617607921636,0.0
3436,-2.626063614031094,0.0
3437,1.0847641428767205,0.0
3438,-0.3193060466980267,0.0
3439,0.06978175340608787,0.0
3440,-0.0857404815886538,0.0
3441,-0.11607785801540121,0.0
3442,-0.04370270517481954,0.0
3443,-0.014759057971547938,0.0
3444,-0.018740738022068992,0.0
3445,-0.11977610407308972,0.0
3446,-0.0811855111157634,0.0
3447,-0.07069955279265991,0.0
3448,-0.1233025041132682,0.0
3449,-0.17401755461527732,0.0
3450,0.49525906702547035,0.0
3451,5.501680902779223,0.0
3452,3.6092985715391985,0.0
3453,-2.7900955427132788,0.0
3454,1.5866741099663622,0.0
3455,-0.7368245395059954,0.0
3456,0.30418870950776217,0.0
3457,-0.04064594610779604,0.0
3458,0.0852980569302575,0.0
3459,-0.016515032279476784,0.0
3460,0.03642171691130569,0.0
3461,-0.06265664567293885,0.0
3462,-0.024853475723608368,0.0
3463,0.05777714006270147,0.0
3464,0.06613498006003363,0.0
3465,0.02932424735104669,0.0
3466,0.007008172490205583,0.0
3467,1.5106891687025812,0.0
3468,6.89027688439553,0.0
3469,-0.20386982943346466,0.0
3470,-1.004547504766991,0.0
3471,0.7929068093792905,0.0
3472,-0.48278610006072237,0.0
3473,0.1731124491727894,0.0
3474,-0.11767380036404067,0.0
3475,0.04851866442513282,0.0
3476,-0.0834017016262579,0.0
3477,0.051160094880775595,0.0
3478,-0.166517446216685,0.0
3479,-0.0573008928491195,0.0
3480,-0.04691869393615367,0.0
3481,-0.01534383239016475,0.0
3482,0.024892507112997474,0.0
3483,0.07646893185176676,0.0
3484,3.395700734756026,0.0
3485,6.2222918086040835,0.0
3486,-2.780133463069743,0.0
3487,0.9403379406173906,0.0
3488,-0.3651966639808646,0.0
3489,0.12066737640847858,0.0
3490,-0.04555314847880573,0.0
3491,-0.0028214306348768696,0.0
3492,-0.04002509343320017,0.0
3493,0.016583466274654457,0.0
3494,0.061185734067540236,0.0
3495,-0.011945940015888418,0.0
3496,-0.016121982295660267,0.0
3497,-0.020660155531757977,0.0
3498,-0.029565013230230332,0.0
3499,-0.07101341242062631,0.0
3500,0.5247985615281328,0.0
3501,5.524200998142445,0.0
3502,3.522307539590223,0.0
3503,-2.728977566713747,0.0
3504,1.5764699800973796,0.0
3505,-0.7516372927665336,0.0
3506,0.3194747921121597,0.0
3507,-0.16900769368515123,0.0
3508,-0.030836469434874763,0.0
3509,-0.05025071134360712,0.0
3510,-0.11894394492829516,0.0
3511,-0.11650966763302381,0.0
3512,0.005277645380552642,0.0
3513,-0.15705078669743733,0.0
3514,-0.025702836800853168,0.0
3515,-0.09239533364953703,0.0
3516,-0.07697125329972364,0.0
3517,1.4493093790755038,0.0
3518,6.800804363684946,0.0
3519,-0.2472587620778241,0.0
3520,-1.0227355759703987,0.0
3521,0.7418415563957569,0.0
3522,-0.4643696448819956,0.0
3523,0.05953754633381237,0.0
3524,-0.16446140148694754,0.0
3525,0.04129460867776467,0.0
3526,-0.030537026595167695,0.0
3527,-0.11807743413050525,0.0
3528,-0.1017177389690947,0.0
3529,-0.17790746958485118,0.0
3530,-0.063244834014547,0.0
3531,-0.08015132863034896,0.0
3532,-0.09986818400434652,0.0
3533,0.01970611140881802,0.0
3534,3.2526927772065832,0.0
3535,6.197198881236685,0.0
3536,-2.788386713065836,0.0
3537,0.938314345356416,0.0
3538,-0.38591665281541426,0.0
3539,0.033239497602017096,0.0
3540,-0.1555703842361278,0.0
3541,-0.10221584094794064,0.0
3542,-0.0775449904954648,0.0
3543,-0.023299963399396315,0.0
3544,-0.13487251806411477,0.0
3545,0.0015659259422663371,0.0
3546,-0.1549034611883981,0.0
3547,0.010969483480989257,0.0
3548,-0.043915229020183674,0.0
3549,-0.06472847783207641,0.0
3550,0.4169706564368473,0.0
3551,5.53080465194129,0.0
3552,3.5138489810003626,0.0
3553,-2.753444218448002,0.0
3554,1.4823072815450271,0.0
3555,-0.8827038208187116,0.0
3556,0.2912041780183817,0.0
3557,-0.2128057895643289,0.0
3558,0.041121712146471937,0.0
3559,-0.013525133582343828,0.0
3560,-0.05417117608392831,0.0
3561,-0.030060589678255912,0.0
3562,-0.15333073371542777,0.0
3563,-0.10086370763947758,0.0
3564,0.07748340215696486,0.0
3565,0.018636601134265143,0.0
3566,-0.07196827000721771,0.0
3567,1.527347139199783,0.0
3568,6.869464241721067,0.0
3569,-0.18366765721496103,0.0
3570,-1.0208105843549027,0.0
3571,0.8475227565717129,0.0
3572,-0.40185824889293575,0.0
3573,0.21293590117832556,0.0
3574,-0.10954995499344951,0.0
3575,0.06283016045975184,0.0
3576,-0.018272168925787702,0.0
3577,-0.06812342209625996,0.0
3578,0.0899332800074492,0.0
3579,-0.05260265025961961,0.0
3580,-0.008763689589029473,0.0
3581,-0.07296110620149214,0.0
3582,0.0035742089329446197,0.0
3583,0.09899966539545832,0.0
3584,3.4315364397158827,0.0
3585,6.237208840727935,0.0
3586,-2.7440964481983317,0.0
3587,1.0257218287369776,0.0
3588,-0.3125508187729023,0.0
3589,0.003821029302007839,0.0
3590,-0.06018621562455443,0.0
3591,-0.05648674803102948,0.0
3592,0.10208859574549047,0.0
3593,-0.1025548747869072,0.0
3594,-0.03504841579971609,0.0
3595,-0.026404834425555006,0.0
3596,-0.07530082762283696,0.0
3597,0.004792296118444145,0.0
3598,0.005727583442096541,0.0
3599,-0.03365288090210468,0.0
3600,0.4616118684225633,0.0
3601,5.446819291436747,0.0
3602,3.4622476272897624,0.0
3603,-2.737034711588186,0.0
3604,1.5007267940540518,0.0
3605,-0.789810519425934,0.0
3606,0.27000035079877965,0.0
3607,-0.13227430319923456,0.0
3608,-0.07418606467348728,0.0
3609,0.03214941078214796,0.0
3610,0.02346231784318014,0.0
3611,-0.057602843370596304,0.0
3612,-0.026872724237970044,0.0
3613,0.08833275715747686,0.0
3614,-0.10242261510200065,0.0
3615,0.019944495413497486,0.0
3616,-0.069830825257334,0.0
3617,1.5401168745681286,0.0
3618,6.990264773816572,0.0
3619,-0.15120286722566773,0.0
3620,-0.9199128928655039,0.0
3621,0.7570939063901311,0.0
3622,-0.3806331970100568,0.0
3623,0.214264558437388,0.0
3624,-0.06129950497766874,0.0
3625,0.052736717554067614,0.0
3626,0.05880885623843876,0.0
3627,-0.0373641054506063,0.0
3628,0.0868848791049843,0.0
3629,0.06573938835237561,0.0
3630,0.04238502206284946,0.0
3631,0.10840094154729099,0.0
3632,0.050842783466026276,0.0
3633,0.10074962205274428,0.0
3634,3.475421933815601,0.0
3635,6.226587773322307,0.0
3636,-2.6672865479971763,0.0
3637,1.0485829528299309,0.0
3638,-0.35034113394102134,0.0
3639,0.05379735260329871,0.0
3640,-0.17592898307976623,0.0
3641,0.027353752368011755,0.0
3642,-0.07119005038444463,0.0
3643,-0.032636783928730075,0.0
3644,-0.020124030668931415,0.0
3645,-0.03333535175674707,0.0
3646,-0.004822419070507473,0.0
3647,-0.05470269029348415,0.0
3648,-0.06263005866598538,0.0
3649,0.08576545481805588,0.0
3650,0.5579560845815255,0.0
3651,5.549537157576542,0.0
3652,3.4565876400392983,0.0
3653,-2.7377043933167875,0.0
3654,1.5663786904967676,0.0
3655,-0.8243504217153677,0.0
3656,0.3660460059169095,0.0
3657,-0.025277889763487355,0.0
3658,0.016946857274944847,0.0
3659,-0.004860682321356953,0.0
3660,0.01924355957830103,0.0
3661,0.019377560297321936,0.0
3662,0.04642737690618215,0.0
3663,0.024312369451844645,0.0
3664,0.09236304391535002,0.0
3665,-0.007155577670912534,0.0
3666,-0.035647619328459765,0.0
3667,1.5950442892986911,0.0
3668,6.911707296991055,0.0
3669,-0.14372037931046666,0.0
3670,-0.9560625195039264,0.0
3671,0.7692969455346018,0.0
3672,-0.44521464592193727,0.0
3673,0.15102194806157257,0.0
3674,0.01881199680412107,0.0
3675,-0.03038340949961843,0.0
3676,0.15116913132979487,0.0
3677,0.019253489723517498,0.0
3678,0.09469236705581173,0.0
3679,-0.029009714527797603,0.0
3680,-0.03581140204037999,0.0
3681,0.06132640103772568,0.0
3682,0.02724592861877983,0.0
3683,0.07863810952493669,0.0
3684,3.543996456176312,0.0
3685,6.321589248797221,0.0
3686,-2.7311130996301975,0.0
3687,1.109166276540126,0.0
3688,-0.40436898930119447,0.0
3689,0.059394372983055235,0.0
3690,0.05292319095038615,0.0
3691,0.019857855587218594,0.0
3692,0.09049363890537235,0.0
3693,0.013577463396881082,0.0
3694,0.001836970668827119,0.0
3695,0.20305175892531224,0.0
3696,0.059046098708902,0.0
3697,-0.02445246629800369,0.0
3698,0.08870952894510906,0.0
3699,-0.011701287559628577,0.0
3700,0.6397913351896671,0.0
3701,5.65694193313174,0.0
3702,3.5435450033220777,0.0
3703,-2.7683058280210777,0.0
3704,1.597285100903709,0.0
3705,-0.7443839876993341,0.0
3706,0.3867723171981308,0.0
3707,-0.08290649495382965,0.0
3708,0.07551279937164805,0.0
3709,0.06958167771845283,0.0
3710,0.03685217196115456,0.0
3711,0.07559658173822559,0.0
3712,-0.0037877903849473996,0.0
3713,0.0644276344630464,0.0
3714,0.010427056685025894,0.0
3715,0.02757706485535931,0.0
3716,0.052341013428652175,0.0
3717,1.7257694258993233,0.0
3718,6.9356714858018975,0.0
3719,-0.16890938936290595,0.0
3720,-0.8352307404084665,0.0
3721,0.7426108719621678,0.0
3722,-0.302146597237841,0.0
3723,0.34529765541173263,0.0
3724,0.044784697533379166,0.0
3725,0.17902218711954168,0.0
3726,0.15905187537949086,0.0
3727,0.11587669169821885,0.0
3728,0.03472947348829001,0.0
3729,0.1366965849350963,0.0
3730,0.041998872866619685,0.0
3731,0.041975435931469574,0.0
3732,0.013960212898296302,0.0
3733,0.06366889578414064,0.0
3734,3.528871545283377,0.0
3735,6.178135471194324,0.0
3736,-2.755597358522917,0.0
3737,1.129407962663339,0.0
3738,-0.39228646136719203,0.0
3739,0.1726467058881227,0.0
3740,-0.11017074124130594,0.0
3741,0.04888426050741761,0.0
3742,0.021366771030731008,0.0
3743,-0.04416842044719187,0.0
3744,0.03990637933004582,0.0
3745,-0.0033948777431637954,0.0
3746,0.03674540566262066,0.0
3747,0.08329503290700857,0.0
3748,0.011718798006720644,0.0
3749,0.05170565167530476,0.0
3750,0.5694582285855128,0.0
3751,5.620485738559819,0.0
3752,3.4698801499837484,0.0
3753,-2.7059676757893576,0.0
3754,1.5681397686638157,0.0
3755,-0.7856055003240141,0.0
3756,0.3952271458911624,0.0
3757,-0.07589066004935802,0.0
3758,0.1678267563419799,0.0
3759,0.05160783440089724,0.0
3760,0.06285140509348913,0.0
3761,0.0969650423327433,0.0
3762,-0.06687734066150061,0.0
3763,0.041656280146095764,0.0
3764,-0.014095639612817092,0.0
3765,0.06386534679979969,0.0
3766,0.04115541607200677,0.0
3767,1.5803684298832184,0.0
3768,6.985174431479911,0.0
3769,-0.28171403267295825,0.0
3770,-0.8621444501157981,0.0
3771,0.7643564384355893,0.0
3772,-0.38978889716716997,0.0
3773,0.2507188886698156,0.0
3774,-0.017270264881050608,0.0
3775,0.0315696323290543,0.0
3776,-0.07607551337346728,0.0
3777,0.05545201087895256,0.0
3778,0.0064428704905408335,0.0
3779,0.028477167726536107,0.0
3780,0.03621257371804069,0.0
3781,-0.044363034617893544,0.0
3782,0.028874162404672048,0.0
3783,0.03723064555631837,0.0
3784,3.608152493923926,0.0
3785,6.295918127911386,0.0
3786,-2.693935844165802,0.0
3787,1.1262615898233912,0.0
3788,-0.3155723130169544,0.0
3789,0.18005070565172365,0.0
3790,-0.13858997862793093,0.0
3791,-0.05100170695231573,0.0
3792,-0.028340677914541097,0.0
3793,0.07077327468167802,0.0
3794,-0.020757787479105193,0.0
3795,0.013291480578712954,0.0
3796,0.0691005286137821,0.0
3797,0.12721601533364457,0.0
3798,0.07091838155326974,0.0
3799,0.09164750472765228,0.0
3800,0.6356933318855524,0.0
3801,5.7682059641211385,0.0
3802,3.5509943048347608,0.0
3803,-2.594477438723774,0.0
3804,1.6902090764060471,0.0
3805,-0.6956213264416022,0.0
3806,0.4458219035471166,0.0
3807,-0.04093524717476885,0.0
3808,0.15943406864153123,0.0
3809,0.06169888319157393,0.0
3810,0.05810448586360875,0.0
3811,0.06991953748701248,0.0
3812,0.012270291284223564,0.0
3813,0.051391319217256856,0.0
3814,-0.004399771417462457,0.0
3815,0.033723977041895184,0.0
3816,0.1065855061646859,0.0
3817,1.6064779987502744,0.0
3818,7.0579376366520625,0.0
3819,-0.25678002417623186,0.0
3820,-0.7825163857319322,0.0
3821,0.8103720313245685,0.0
3822,-0.36359204980509097,0.0
3823,0.17119285189705205,0.0
3824,0.005044337258215771,0.0
3825,-0.025071786044315356,0.0
3826,0.11132676586314674,0.0
3827,0.14467200632655897,0.0
3828,0.0461968772110907,0.0
3829,0.03177269054762803,0.0
3830,0.032496247679238324,0.0
3831,-0.03432026431544869,0.0
3832,0.0742019007188874,0.0
3833,0.13949054494506075,0.0
3834,3.627250937657076,0.0
3835,6.29498038351908,0.0
3836,-2.678632254116429,0.0
3837,1.1520664251568202,0.0
3838,-0.32894310064228477,0.0
3839,0.16603778289865867,0.0
3840,0.09399566846615333,0.0
3841,0.051918989490484575,0.0
3842,0.0946735378708593,0.0
3843,0.1233492647587401,0.0
3844,0.05650108797579568,0.0
3845,0.08458129209151426,0.0
3846,0.08685284080130576,0.0
3847,0.04928354361969991,0.0
3848,0.05569335341040329,0.0
3849,0.09360418787382235,0.0
3850,0.6141427415783379,0.0
3851,5.708269620909792,0.0
3852,3.463231354738007,0.0
3853,-2.5985771117385226,0.0
3854,1.6409832857087168,0.0
3855,-0.7914378908846437,0.0
3856,0.36194786973494475,0.0
3857,-0.03665462643350191,0.0
3858,0.10654231209103864,0.0
3859,0.059987793843809416,0.0
3860,0.07126825568953228,0.0
3861,0.03453311408999861,0.0
3862,0.08216556032981555,0.0
3863,0.0673633294249277,0.0
3864,-8.24389012861193e-05,0.0
3865,0.1345007141587516,0.0
3866,0.14238861781983003,0.0
3867,1.6939742803654045,0.0
3868,6.994812377192057,0.0
3869,-0.23964179951780365,0.0
3870,-0.8555705647838258,0.0
3871,0.8406266791729519,0.0
3872,-0.2861272417552397,0.0
3873,0.1954856488399102,0.0
3874,0.014092989792755304,0.0
3875,0.0446050013552982,0.0
3876,0.03672503590645049,0.0
3877,0.010926404186518482,0.0
3878,0.001302674701197118,0.0
3879,0.0492592775687591,0.0
3880,-0.013511161737459615,0.0
3881,-0.007359929023386995,0.0
3882,0.06116130529371969,0.0
3883,0.16278096849201662,0.0
3884,3.5592726321748382,0.0
3885,6.267332874593955,0.0
3886,-2.7483588172150193,0.0
3887,1.1042045857685987,0.0
3888,-0.3398577262651317,0.0
3889,0.18310958543730962,0.0
3890,0.021222355713097406,0.0
3891,-0.01931647873138312,0.0
3892,0.031881252233083336,0.0
3893,0.08873485092961908,0.0
3894,0.026186949191963148,0.0
3895,0.12436824205299152,0.0
3896,0.013769745893130056,0.0
3897,0.1528193110265792,0.0
3898,0.10719975932858763,0.0
3899,-0.003580137692329649,0.0
3900,0.7319678790422701,0.0
3901,5.7250141894262345,0.0
3902,3.3825703442118966,0.0
3903,-2.6037646278714357,0.0
3904,1.6803801744570313,0.0
3905,-0.7037275161451585,0.0
3906,0.35773913884466174,0.0
3907,0.019853954008135145,0.0
3908,0.1426355167254491,0.0
3909,0.04000624657818906,0.0
3910,0.034564973651822206,0.0
3911,0.09487011880009968,0.0
3912,0.04345288478236449,0.0
3913,-0.028585415835449116,0.0
3914,0.035485498090766364,0.0
3915,0.07515112084185845,0.0
3916,0.12290051716269995,0.0
3917,1.7153681707538793,0.0
3918,6.9951510870469615,0.0
3919,-0.2851831671980425,0.0
3920,-0.7649119934254276,0.0
3921,0.846350190867464,0.0
3922,-0.3484381800927299,0.0
3923,0.17959828972194397,0.0
3924,-0.03808023504273196,0.0
3925,0.046165056026606935,0.0
3926,0.1372461996211559,0.0
3927,0.046526864462331396,0.0
3928,0.11439410344021272,0.0
3929,0.13734327100442578,0.0
3930,0.04193215741541081,0.0
3931,-0.04755198963100604,0.0
3932,0.043256494511090385,0.0
3933,0.20813136392855677,0.0
3934,3.6067416954480698,0.0
3935,6.21156345211868,0.0
3936,-2.767432105106754,0.0
3937,1.1657635469330316,0.0
3938,-0.3831993546058027,0.0
3939,0.14745461846051597,0.0
3940,0.015650989459045833,0.0
3941,0.12257412280486318,0.0
3942,0.08566448775545144,0.0
3943,0.030154388285713978,0.0
3944,0.10220249585275051,0.0
3945,0.020353729345904053,0.0
3946,0.06629509842839204,0.0
3947,-0.021343951224042507,0.0
3948,0.06045728968818512,0.0
3949,0.02092828320708289,0.0
3950,0.652191764532891,0.0
3951,5.6511689905950355,0.0
3952,3.255497297102962,0.0
3953,-2.5734270512554707,0.0
3954,1.6487495904893164,0.0
3955,-0.7154844567182187,0.0
3956,0.32662155524160374,0.0
3957,0.0244031811644759,0.0
3958,0.0736449571223227,0.0
3959,0.044348248997433906,0.0
3960,0.137305723263625,0.0
3961,0.018172637117363298,0.0
3962,0.09713100316874027,0.0
3963,0.0018269739266294355,0.0
3964,0.10826379491956832,0.0
3965,0.09129877394587974,0.0
3966,0.07290448222783767,0.0
3967,1.7278823287282672,0.0
3968,7.044830711841044,0.0
3969,-0.2882391366545456,0.0
3970,-0.9135302203398401,0.0
3971,0.7137323458739778,0.0
3972,-0.32295193676983425,0.0
3973,0.17995400403365724,0.0
3974,-0.03175541838652082,0.0
3975,0.06557293332807498,0.0
3976,0.06271684416905617,0.0
3977,0.07720409871534323,0.0
3978,-0.03797917358871489,0.0
3979,-0.04556192381691784,0.0
3980,0.02320518519849544,0.0
3981,0.0794992311087253,0.0
3982,0.06568225097610157,0.0
3983,0.11194363715872942,0.0
3984,3.63779216480413,0.0
3985,6.173316067328158,0.0
3986,-2.771647549831112,0.0
3987,1.1619141031838864,0.0
3988,-0.3007072463909557,0.0
3989,0.13607647504590353,0.0
3990,-0.07717447795397916,0.0
3991,0.008365043632582489,0.0
3992,0.0025290892818633608,0.0
3993,-0.00837044834944354,0.0
3994,-0.025190110214064178,0.0
3995,0.017436202047778678,0.0
3996,0.04787800319773104,0.0
3997,0.02254888699807033,0.0
3998,0.0006709337564535338,0.0
3999,-0.03866645411791629,0.0
4000,0.6434279473240239,0.0
4001,5.751539426694666,0.0
4002,3.307160963750173,0.0
4003,-2.6820973791586336,0.0
4004,1.496530959399801,0.0
4005,-0.7393461714461923,0.0
4006,0.31210127058592296,0.0
4007,-0.09336300266858115,0.0
4008,-0.05644867541436016,0.0
4009,-0.03018116992327746,0.0
4010,-0.002250510625305912,0.0
4011,0.0315270426456263,0.0
4012,0.033592670011014944,0.0
4013,0.04845495325176194,0.0
4014,-0.05286441443858356,0.0
4015,0.046179736228377,0.0
4016,0.07205188852327066,0.0
4017,1.711973693990751,0.0
4018,6.934924209032572,0.0
4019,-0.39443914107898564,0.0
4020,-0.8496430891832627,0.0
4021,0.7650326587106646,0.0
4022,-0.3462787061666628,0.0
4023,0.13557059091761217,0.0
4024,-0.15015293435404753,0.0
4025,-0.05856515845558226,0.0
4026,0.008537859890604169,0.0
4027,-0.05733122745083884,0.0
4028,0.06493975824021435,0.0
4029,-0.053102215729487305,0.0
4030,0.015786526221911817,0.0
4031,-0.0030892084871410597,0.0
4032,0.0007470499002752568,0.0
4033,0.09917892835124983,0.0
4034,3.4810234824222923,0.0
4035,6.1580339151852135,0.0
4036,-2.8298817052802567,0.0
4037,1.0515907134580662,0.0
4038,-0.5448817397101806,0.0
4039,0.08004654731381894,0.0
4040,-0.09413754214872053,0.0
4041,-0.0627876283477538,0.0
4042,-0.0010270255215447735,0.0
4043,-0.049211793530491516,0.0
4044,-0.09226611045093006,0.0
4045,-0.04885617701755589,0.0
4046,-0.05788503437345443,0.0
4047,-0.050796390733004126,0.0
4048,-0.0035329928090330337,0.0
4049,-0.06284501308161766,0.0
4050,0.5251177853360208,0.0
4051,5.627739442756682,0.0
4052,3.19867615167195,0.0
4053,-2.7440712898237374,0.0
4054,1.4269400287329954,0.0
4055,-0.7557735029626631,0.0
4056,0.26777856136272016,0.0
4057,-0.1080804648533043,0.0
4058,0.004189799050356074,0.0
4059,-0.011596881437342721,0.0
4060,0.0029354395534752706,0.0
4061,-0.020284550029776093,0.0
4062,-0.03999919601507922,0.0
4063,0.05678140070568932,0.0
4064,0.0059102639176225324,0.0
4065,0.025120248214572913,0.0
4066,0.08621793246512302,0.0
4067,1.7168874292972018,0.0
4068,6.984013789647458,0.0
4069,-0.47034738146324573,0.0
4070,-0.7470418043577354,0.0
4071,0.6938813370582836,0.0
4072,-0.4125730847619219,0.0
4073,0.17884359070112263,0.0
4074,-0.018905134862199142,0.0
4075,0.02214871825983572,0.0
4076,0.04549225091537133,0.0
4077,0.030050720951658796,0.0
4078,-0.15769731559403158,0.0
4079,-0.0237138883907903,0.0
4080,-0.044258995688382305,0.0
4081,0.012806232707788967,0.0
4082,-0.02973128768164133,0.0
4083,0.06924406349733131,0.0
4084,3.5955040813492802,0.0
4085,6.19692332088686,0.0
4086,-2.7916422953858056,0.0
4087,1.1440353790321576,0.0
4088,-0.41743285356762067,0.0
4089,0.234568884358825,0.0
4090,-0.1286424496933965,0.0
4091,0.0608718708207258,0.0
4092,0.06871459366957064,0.0
4093,-0.03278183927580726,0.0
4094,0.123726225993546,0.0
4095,-0.0051699689294383445,0.0
4096,-0.03759178371359257,0.0
4097,0.0697540936970893,0.0
4098,0.0046416822468820455,0.0
4099,0.057953642671922774,0.0
4100,0.6489243418560426,0.0
4101,5.666987432172617,0.0
4102,3.2568003772936844,0.0
4103,-2.6526457843278575,0.0
4104,1.5941304995284287,0.0
4105,-0.8001730969988428,0.0
4106,0.3592614674132133,0.0
4107,-0.09642892418478674,0.0
4108,0.017885567603910985,0.0
4109,0.14900434403364451,0.0
4110,-0.028877833069290818,0.0
4111,0.07795352415804452,0.0
4112,-0.027949164379067446,0.0
4113,0.03712457740194272,0.0
4114,-0.025455622482387568,0.0
4115,0.06946008825086777,0.0
4116,0.004253709185401888,0.0
4117,1.7495335475423832,0.0
4118,7.0204307814040945,0.0
4119,-0.45803712974129707,0.0
4120,-0.7749315841249028,0.0
4121,0.7462874357820554,0.0
4122,-0.3569093465847667,0.0
4123,0.2108746451187053,0.0
4124,-0.019714250775954432,0.0
4125,0.024797495128826372,0.0
4126,0.010846944023134422,0.0
4127,-0.04036195759706257,0.0
4128,-0.020428571900124783,0.0
4129,-0.010982975466350478,0.0
4130,-0.09577273039621378,0.0
4131,-0.02136417904186238,0.0
4132,0.1036486011203974,0.0
4133,0.038655622980881627,0.0
4134,3.5993732700182135,0.0
4135,6.1728356535385345,0.0
4136,-2.7908349706149247,0.0
4137,1.1637318062349795,0.0
4138,-0.37714897399395875,0.0
4139,0.2437596078852862,0.0
4140,-0.01738472710584979,0.0
4141,-0.038418451190757014,0.0
4142,0.0058513539063145565,0.0
4143,-0.05343591432001904,0.0
4144,-0.028388102845994488,0.0
4145,-0.08233496115156301,0.0
4146,0.126207144886688,0.0
4147,0.02787014210314025,0.0
4148,0.005840516648052341,0.0
4149,0.05460680499560987,0.0
