timestamp,value-0,is_anomaly
0,0.299646600713993,0.0
1,4.590977999291526,0.0
2,5.034628807262881,0.0
3,-3.02273297209733,0.0
4,1.5909298627692021,0.0
5,-0.7671521333542604,0.0
6,0.31687973379771733,0.0
7,-0.06828976545938413,0.0
8,-0.0015078742751251303,0.0
9,-0.03640991672395945,0.0
10,0.014202142585228271,0.0
11,0.09804149161155654,0.0
12,0.028383825022842504,0.0
13,0.07213798868698632,0.0
14,0.06804507821030494,0.0
15,0.04152059114613889,0.0
16,-0.016103416613071277,0.0
17,1.0517234600204786,0.0
18,6.510417708012603,0.0
19,1.4958064907719182,0.0
20,-1.923672382959969,0.0
21,1.2030246667906026,0.0
22,-0.6600002492556583,0.0
23,0.2127781740068225,0.0
24,-0.1385000109761188,0.0
25,-0.004851063449410218,0.0
26,0.0695383313246126,0.0
27,-0.04609788471857739,0.0
28,-0.045484463389845436,0.0
29,0.037037941506165704,0.0
30,0.040875634287368644,0.0
31,-0.003994668015779064,0.0
32,-0.049291914219830306,0.0
33,-0.012387468883417057,0.0
34,2.5468874575870895,0.0
35,7.002393938136784,0.0
36,-1.747667217585709,0.0
37,0.1389248321826061,0.0
38,0.09863642227237668,0.0
39,-0.07028323910494458,0.0
40,0.09005293981021664,0.0
41,0.03702478928799986,0.0
42,0.053197474593136354,0.0
43,0.02932949999161291,0.0
44,-0.03871948138406017,0.0
45,0.05002171140468049,0.0
46,0.008244817287913524,0.0
47,0.04799345170525719,0.0
48,0.05539786923909137,0.0
49,-0.009662327543081342,0.0
50,0.26796914810736727,0.0
51,4.630723798746676,0.0
52,4.950555310192631,0.0
53,-3.113904525052913,0.0
54,1.504951522898128,0.0
55,-0.6812557701661661,0.0
56,0.2576922292146392,0.0
57,-0.12731043032696399,0.0
58,-0.029985534886501696,0.0
59,-0.019960855929160463,0.0
60,-0.1283038097140471,0.0
61,-0.012402906711571977,0.0
62,0.03673029676218329,0.0
63,-0.0541900210982731,0.0
64,0.028185598422249054,0.0
65,0.003099532496548589,0.0
66,-0.005288097345656932,0.0
67,1.0052896172007066,0.0
68,6.431050793796711,0.0
69,1.5271549509039466,0.0
70,-1.9099884310909543,0.0
71,1.2459580046500713,0.0
72,-0.6384049511972723,0.0
73,0.15161324423643824,0.0
74,-0.06470087970853365,0.0
75,-0.0022941393735217697,0.0
76,0.013586627299209147,0.0
77,-0.06899400259685308,0.0
78,0.02709053031437261,0.0
79,-0.042271705536406454,0.0
80,-0.056811341122221096,0.0
81,-0.06807956801963125,0.0
82,-0.056214584325272765,0.0
83,-0.039499723668472805,0.0
84,2.432018077784437,0.0
85,6.819342357087887,0.0
86,-1.886919551204923,0.0
87,0.17715186881993736,0.0
88,0.07596829246594447,0.0
89,-0.1103581366741117,0.0
90,-0.05339616206244078,0.0
91,-0.13431467849328727,0.0
92,-0.062043033406028306,0.0
93,-0.030205073000602847,0.0
94,0.014003271197918271,0.0
95,-0.09107780144696048,0.0
96,0.04348660507174365,0.0
97,-0.05305102071501071,0.0
98,-0.05854387821462913,0.0
99,-0.016669678080511244,0.0
100,0.3192440756082859,0.0
101,4.5238595349076585,0.0
102,4.9896942427665465,0.0
103,-3.0082298228502475,0.0
104,1.5156415105939154,0.0
105,-0.7623600381259279,0.0
106,0.18827055970384593,0.0
107,-0.14323322564501395,0.0
108,-0.0012827165306562895,0.0
109,0.004915806123622593,0.0
110,0.010101537062417516,0.0
111,-0.03885986536661836,0.0
112,-0.07142131264630923,0.0
113,-0.07930396497930697,0.0
114,0.03546164566941534,0.0
115,-0.05333322090708417,0.0
116,-0.031157095621031205,0.0
117,0.9497309088410063,0.0
118,6.413667392849398,0.0
119,1.5041523555026923,0.0
120,-1.9589643658701306,0.0
121,1.3175889799679557,0.0
122,-0.6221440903651727,0.0
123,0.29588806230719344,0.0
124,-0.03538416612160121,0.0
125,-0.01721875900435509,0.0
126,-0.07259723318541522,0.0
127,-0.11301044433613286,0.0
128,0.045894225734326485,0.0
129,-0.03862248915338004,0.0
130,0.007636165534548177,0.0
131,0.008577821602430098,0.0
132,0.028097915696904667,0.0
133,0.05656896512537497,0.0
134,2.5436213667088508,0.0
135,6.7834681687142,0.0
136,-1.8463108978151541,0.0
137,0.23003407162382128,0.0
138,0.15916108649703456,0.0
139,-0.13164550576549788,0.0
140,-0.05463373937068466,0.0
141,-0.01675834544620986,0.0
142,0.03953961452002424,0.0
143,0.06671791716678101,0.0
144,-0.01243463312218482,0.0
145,0.0038688756477947457,0.0
146,0.06655523294516406,0.0
147,-0.06896729276730965,0.0
148,0.07476681316374191,0.0
149,-0.0916790421710825,0.0
150,0.18018431577389007,0.0
151,4.555687203742545,0.0
152,4.90463424375234,0.0
153,-2.9478547965775315,0.0
154,1.6282892620853462,0.0
155,-0.7433105057801264,0.0
156,0.2714776551543892,0.0
157,-0.11014344136896881,0.0
158,0.08325525326980253,0.0
159,-0.10566075552780856,0.0
160,-0.04434733553746953,0.0
161,0.037223811962691755,0.0
162,0.01592980991716716,0.0
163,-0.07281529451554797,0.0
164,-0.02310147984034406,0.0
165,-0.06327099796149502,0.0
166,0.02708705023125041,0.0
167,0.9702332027723702,0.0
168,6.463669760016417,0.0
169,1.4791648576841798,0.0
170,-1.971747223335403,0.0
171,1.1979166391946883,0.0
172,-0.7117823043118161,0.0
173,0.2409800385244429,0.0
174,-0.0583523173203077,0.0
175,0.018480691088280075,0.0
176,-0.0387123989009562,0.0
177,0.01336153933443432,0.0
178,-0.06094324353105382,0.0
179,-0.06991417904716779,0.0
180,0.02093514042694316,0.0
181,-0.0443852784570002,0.0
182,-0.0031487252081536035,0.0
183,-0.040323736816556696,0.0
184,2.570728478384401,0.0
185,6.724889777420484,0.0
186,-1.9915608280870938,0.0
187,0.0945796112363812,0.0
188,0.12111597968535293,0.0
189,-0.05633978743642912,0.0
190,0.04989024167416259,0.0
191,-0.034463974676043785,0.0
192,-0.05304473613719966,0.0
193,0.016419095926427634,0.0
194,0.0793357377332587,0.0
195,0.02530491656782083,0.0
196,-0.024174082522117637,0.0
197,-0.02964134013917029,0.0
198,-0.0010608743110378984,0.0
199,0.030677280789062497,0.0
200,0.2676894482621946,0.0
201,4.636606929447085,0.0
202,4.870035338675321,0.0
203,-3.0286379098094334,0.0
204,1.4363249052192328,0.0
205,-0.7174555519630946,0.0
206,0.30473366342621144,0.0
207,-0.13824879721875621,0.0
208,-0.00962347174203955,0.0
209,-0.03965155959484286,0.0
210,-0.008748616037661219,0.0
211,0.02229639024956901,0.0
212,-0.040807737472760605,0.0
213,0.058807134908340074,0.0
214,-0.007931803359304823,0.0
215,-0.05669711785678297,0.0
216,-0.04511720387304102,0.0
217,1.0317320496196674,0.0
218,6.475949030124698,0.0
219,1.458853489801445,0.0
220,-1.9408279326064637,0.0
221,1.2417154717253176,0.0
222,-0.6828795160777853,0.0
223,0.28171521364538754,0.0
224,-0.06652091604256738,0.0
225,0.09130912781308398,0.0
226,-0.010821954808345684,0.0
227,0.006385019701508947,0.0
228,0.023937177851258068,0.0
229,0.0053387125547865455,0.0
230,0.03412049950982826,0.0
231,0.026912213509493785,0.0
232,0.0017961667328806885,0.0
233,0.019529191370325362,0.0
234,2.5980118853687606,0.0
235,6.85177413025551,0.0
236,-1.8960639265747379,0.0
237,0.13242777351283966,0.0
238,0.04969648916140462,0.0
239,-0.1498301379900162,0.0
240,-0.023136864238036094,0.0
241,-0.041240933221246,0.0
242,-0.033503480051636524,0.0
243,-0.03040856009157712,0.0
244,-0.1044947058286704,0.0
245,-0.004866906434827622,0.0
246,0.08350198215080226,0.0
247,0.03031491503914642,0.0
248,-0.041360765393755716,0.0
249,0.005258436398058017,0.0
250,0.25687218291300684,0.0
251,4.640503358746472,0.0
252,4.980599234623258,0.0
253,-3.0030896384704544,0.0
254,1.5676157549912266,0.0
255,-0.7702852809577344,0.0
256,0.24639557991563002,0.0
257,-0.08825939237122302,0.0
258,0.00750087549082544,0.0
259,-0.04037274149297913,0.0
260,-0.034032239038655925,0.0
261,0.034775490655593634,0.0
262,0.07025679260081483,0.0
263,0.012427683717423685,0.0
264,0.02840314190772251,0.0
265,0.11475954826368771,0.0
266,0.018036048230569354,0.0
267,1.031729948814857,0.0
268,6.544465226811406,0.0
269,1.4226952144028175,0.0
270,-1.8265410067421732,0.0
271,1.2055478213352757,0.0
272,-0.6337769640756599,0.0
273,0.2739960897984746,0.0
274,-0.09648194531946591,0.0
275,0.0326961819691306,0.0
276,0.051646865065918375,0.0
277,0.1200587943275555,0.0
278,0.16582727798688304,0.0
279,0.03725293540382672,0.0
280,-0.011745921102275687,0.0
281,0.060693288848551734,0.0
282,0.10150938220136385,0.0
283,0.10455735753635487,0.0
284,2.635736466162362,0.0
285,7.004047506036649,0.0
286,-1.789758113796326,0.0
287,0.2616156706078661,0.0
288,0.15046607075148236,0.0
289,-0.06524375662860259,0.0
290,0.03292140092245694,0.0
291,0.0666875651914497,0.0
292,0.047247743866911884,0.0
293,0.027438764728448237,0.0
294,0.026296428206345746,0.0
295,0.03783386772561389,0.0
296,0.03674849899480445,0.0
297,0.09796398306904504,0.0
298,0.12407677457298068,0.0
299,0.035696682905236914,0.0
300,0.3224775150830905,0.0
301,4.681913035822195,0.0
302,4.933754598397644,0.0
303,-2.9931300127010965,0.0
304,1.5903486261140318,0.0
305,-0.5554743098745303,0.0
306,0.3617242624942353,0.0
307,-0.02081366588448972,0.0
308,0.05790562822220183,0.0
309,0.0043309044421633094,0.0
310,0.05132156369541409,0.0
311,0.049564797779827724,0.0
312,0.11587454236949106,0.0
313,0.0429007781209505,0.0
314,0.10604611333204925,0.0
315,0.09509707013468559,0.0
316,0.14895192147684308,0.0
317,1.0499049480388705,0.0
318,6.513093691552037,0.0
319,1.5909173912660972,0.0
320,-1.7579316089862544,0.0
321,1.2671143006306733,0.0
322,-0.5465836418082627,0.0
323,0.3014976873273021,0.0
324,-0.002650273339676372,0.0
325,-0.04473126296999065,0.0
326,0.029250028785857533,0.0
327,0.07022624306039586,0.0
328,-0.035755898076923344,0.0
329,0.00819156227542088,0.0
330,0.0543830722516771,0.0
331,0.1132640909440847,0.0
332,-0.032119705770499996,0.0
333,0.14073117173292654,0.0
334,2.6315691940973593,0.0
335,6.944694170069398,0.0
336,-1.8309836594061408,0.0
337,0.3104057631294899,0.0
338,0.1477527412541364,0.0
339,-0.06190343794830057,0.0
340,0.09350667977892488,0.0
341,0.09259380269718592,0.0
342,-0.0007567021119642067,0.0
343,-0.007880303188107361,0.0
344,0.026395768251292445,0.0
345,0.12173888246242386,0.0
346,0.022840730867847554,0.0
347,0.019554538041255065,0.0
348,0.05972307500746564,0.0
349,-0.00845400107171472,0.0
350,0.3206472053063172,0.0
351,4.787091172545674,0.0
352,4.94003364070248,0.0
353,-2.8821979794646477,0.0
354,1.6120099512655397,0.0
355,-0.6538476452578666,0.0
356,0.39453013611292576,0.0
357,-0.038297554530722616,0.0
358,-0.014892480838168395,0.0
359,0.11181199689526676,0.0
360,0.06923074968588133,0.0
361,0.10658656660553914,0.0
362,0.021698830010712752,0.0
363,0.04064064813114408,0.0
364,0.07825549592094877,0.0
365,0.061598920540225734,0.0
366,-0.002921206022790196,0.0
367,1.1062072119401523,0.0
368,6.595340493844174,0.0
369,1.4335965560348471,0.0
370,-1.8173660784685506,0.0
371,1.3261393735867588,0.0
372,-0.6140973758324046,0.0
373,0.36479745815671527,0.0
374,-0.05479625420198975,0.0
375,0.1430656264435096,0.0
376,0.015689640169024403,0.0
377,0.08969075627385398,0.0
378,0.05624147460841824,0.0
379,0.019085695466393354,0.0
380,0.008266524725839712,0.0
381,0.04007741937431498,0.0
382,0.1212085205235679,0.0
383,0.20194591726097977,0.0
384,2.5833096194815486,0.0
385,6.948610932165467,0.0
386,-1.7612198779249237,0.0
387,0.36413238777480267,0.0
388,0.13888307500222097,0.0
389,-0.04301066933518133,0.0
390,0.10427555790045771,0.0
391,0.07444898068535184,0.0
392,0.11572276384034304,0.0
393,0.10012663255766796,0.0
394,0.1146585499788908,0.0
395,0.1461861771725516,0.0
396,0.1199434662501839,0.0
397,0.1025614988652924,0.0
398,-0.00197638561248311,0.0
399,0.11141666358431243,0.0
400,0.4062129975192798,0.0
401,4.748775769253897,0.0
402,4.921876792270699,0.0
403,-2.9135508233699885,0.0
404,1.584755957914404,0.0
405,-0.6737441448638296,0.0
406,0.3622498269305132,0.0
407,-0.04645720304445232,0.0
408,0.20912695011240887,0.0
409,0.04531027909615287,0.0
410,0.09471744165589879,0.0
411,0.11282042945060414,0.0
412,-0.001125402696507724,0.0
413,0.08262728920499343,0.0
414,0.1775563712536324,0.0
415,0.06542035268766698,0.0
416,0.11056029931448015,0.0
417,1.1079470018556676,0.0
418,6.55988974609941,0.0
419,1.43258299921796,0.0
420,-1.791287006315562,0.0
421,1.2818740120011527,0.0
422,-0.5605573049007007,0.0
423,0.3827879573788728,0.0
424,0.06755438900093563,0.0
425,0.08316270197735628,0.0
426,0.029137547487830207,0.0
427,0.1010879554766968,0.0
428,0.12337370946184743,0.0
429,0.11523975458283431,0.0
430,-0.0012401922094916196,0.0
431,0.049037793631506954,0.0
432,0.07566831262475045,0.0
433,0.09946333997041942,0.0
434,2.624392543025994,0.0
435,6.883946767241878,0.0
436,-1.8265962553873374,0.0
437,0.43388987834786646,0.0
438,0.21952323382529773,0.0
439,0.009152093189778603,0.0
440,0.07259625943922828,0.0
441,0.07987501272328655,0.0
442,0.12622691354108592,0.0
443,0.08635200850176628,0.0
444,0.05831558670845009,0.0
445,0.05677613741979691,0.0
446,-0.00552305972526998,0.0
447,0.0671364990312221,0.0
448,0.07657965091541924,0.0
449,0.11834854788743626,0.0
450,0.32037199813818723,0.0
451,4.741536361583201,0.0
452,4.865717633448547,0.0
453,-2.885780758835437,0.0
454,1.6871291730777096,0.0
455,-0.5539172117026198,0.0
456,0.4139880787531289,0.0
457,0.004344811349312461,0.0
458,0.12185773044189464,0.0
459,0.04570347259837013,0.0
460,0.05822968698830002,0.0
461,0.06202617905930269,0.0
462,0.049652990502582935,0.0
463,0.11042233645253197,0.0
464,0.023335452929900496,0.0
465,0.1610399865531714,0.0
466,0.05809919274528805,0.0
467,1.1900976901958544,0.0
468,6.569738404276342,0.0
469,1.4125094902369515,0.0
470,-1.6914559794723814,0.0
471,1.250280159979336,0.0
472,-0.5979491815217436,0.0
473,0.40833682871863136,0.0
474,0.024867571709602215,0.0
475,-0.00920658720841426,0.0
476,0.02744064552417325,0.0
477,0.06156737935260169,0.0
478,0.05128942549094794,0.0
479,0.11664797131505336,0.0
480,0.05222026824515987,0.0
481,-0.0416043624910077,0.0
482,0.046795321758243566,0.0
483,0.10584932163330546,0.0
484,2.6657713326147303,0.0
485,6.871002104322044,0.0
486,-1.7949373978165573,0.0
487,0.316119613453218,0.0
488,0.08072679841552252,0.0
489,-0.1265498110951546,0.0
490,0.03765431689736628,0.0
491,0.16348942651132223,0.0
492,0.09448738589085927,0.0
493,-0.032945050708682456,0.0
494,0.07607553076887288,0.0
495,0.012394551702896321,0.0
496,0.10970532169149899,0.0
497,-0.05364047350091402,0.0
498,0.07926765495757733,0.0
499,-0.03011192236910793,0.0
500,0.31197069056639193,0.0
501,4.800943865473468,0.0
502,4.865947859121077,0.0
503,-2.93095378352777,0.0
504,1.6852897226714696,0.0
505,-0.7209180128309403,0.0
506,0.3434502708149524,0.0
507,-0.07948078172904556,0.0
508,0.020574375780182792,0.0
509,0.014816147838743677,0.0
510,0.05066433177068977,0.0
511,0.01088162707438822,0.0
512,0.01984669321931612,0.0
513,0.17180819589308005,0.0
514,0.046254956525193104,0.0
515,0.026546177849576767,0.0
516,0.04591528173889852,0.0
517,1.1184049093833923,0.0
518,6.57850430241146,0.0
519,1.3519441246848096,0.0
520,-1.7735493088622858,0.0
521,1.2945652702325292,0.0
522,-0.6335987388431903,0.0
523,0.30653101061627047,0.0
524,-0.07763422908723627,0.0
525,0.012129191895981183,0.0
526,0.033793922002095474,0.0
527,0.05110524500944935,0.0
528,0.0027716591756671606,0.0
529,-0.01286430546987117,0.0
530,-0.010424776732677488,0.0
531,-0.02322952561165979,0.0
532,0.004735696947229532,0.0
533,-0.007362027044388354,0.0
534,2.599029548474297,0.0
535,6.873079114669048,0.0
536,-1.9643088638443522,0.0
537,0.2659210523809652,0.0
538,0.1041195335418583,0.0
539,-0.06415210245544248,0.0
540,-0.003214229166938226,0.0
541,0.051984183544438844,0.0
542,0.014090575512307708,0.0
543,0.0027377939669043392,0.0
544,0.057105987119633515,0.0
545,-0.07851776695213365,0.0
546,0.04902374230561145,0.0
547,-0.022231226502875255,0.0
548,-0.038015225657836146,0.0
549,-0.11309683221134596,0.0
550,0.23036391755329588,0.0
551,4.742137439382293,0.0
552,4.742655193740366,0.0
553,-3.0383561589969683,0.0
554,1.5469444020638823,0.0
555,-0.7472559774725617,0.0
556,0.23816696545852112,0.0
557,-0.15124926547432282,0.0
558,-0.050966143046596885,0.0
559,-0.06947681236332742,0.0
560,0.021163907481591686,0.0
561,-0.08174669553138288,0.0
562,-0.1008572047548459,0.0
563,-0.010707225758211552,0.0
564,-0.030425828640700675,0.0
565,0.022003437899738146,0.0
566,-0.04472181379785322,0.0
567,1.034559342995071,0.0
568,6.688063611484717,0.0
569,1.3954137060718188,0.0
570,-1.8120703612813378,0.0
571,1.113887494311111,0.0
572,-0.5643787270943449,0.0
573,0.2609693232827399,0.0
574,-0.09619350859791026,0.0
575,-0.12762904132111644,0.0
576,-0.02538023193221682,0.0
577,0.005607728618428443,0.0
578,-0.031268178596895804,0.0
579,-0.036919324383181726,0.0
580,-0.008555651544576548,0.0
581,-0.07331018283958671,0.0
582,-0.017776874066712467,0.0
583,0.04173963252508639,0.0
584,2.474221402314672,0.0
585,6.859460990264701,0.0
586,-1.9413471296595193,0.0
587,0.2980928052352584,0.0
588,0.01504768530041091,0.0
589,-0.09766995998273556,0.0
590,-0.046034747976815824,0.0
591,-0.10762425380048929,0.0
592,-0.03488483216102316,0.0
593,0.05486968077409322,0.0
594,0.0566823203590035,0.0
595,-0.0062793789282368,0.0
596,-0.03322262670068589,0.0
597,-0.024196430146462423,0.0
598,-0.0001316258615367584,0.0
599,-0.055115319178749705,0.0
600,0.3343705289825586,0.0
601,4.749662950944343,0.0
602,4.722007373023312,0.0
603,-3.0464780653370225,0.0
604,1.4836320908202623,0.0
605,-0.8117909847158731,0.0
606,0.31063802011219516,0.0
607,-0.15509579431944137,0.0
608,-0.04167553449238208,0.0
609,0.027570636927727793,0.0
610,-0.05378729365504944,0.0
611,-0.04673005000723466,0.0
612,-0.07049279894161839,0.0
613,-0.09378978896100992,0.0
614,-0.05830036536242119,0.0
615,-0.0943629540486232,0.0
616,-0.07165595621181593,0.0
617,1.1192476813019656,0.0
618,6.469240990959623,0.0
619,1.2377867574192245,0.0
620,-1.9531331418006008,0.0
621,1.16198052637898,0.0
622,-0.6615753335606791,0.0
623,0.18705242057110696,0.0
624,-0.0882970854200794,0.0
625,0.009672827499711958,0.0
626,-0.011546067886543833,0.0
627,-0.053704153307097664,0.0
628,-0.0397693684068056,0.0
629,-0.09486119991611798,0.0
630,-0.01707766223765818,0.0
631,0.023854284355233717,0.0
632,-0.028643375414109384,0.0
633,-0.007031132876824952,0.0
634,2.593275316042823,0.0
635,6.742473538296197,0.0
636,-1.973984342302442,0.0
637,0.3227020698288918,0.0
638,0.046694191237820926,0.0
639,-0.04816110049761871,0.0
640,0.052580103637960056,0.0
641,0.03745152591250896,0.0
642,-0.0731740942281198,0.0
643,0.025934287760262166,0.0
644,-0.060663089625866695,0.0
645,-0.06058542688090103,0.0
646,0.017785365931097308,0.0
647,-0.07541642802474775,0.0
648,-0.03293006586888697,0.0
649,-0.049586245686185554,0.0
650,0.30255214009818177,0.0
651,4.713164982044148,0.0
652,4.78013576585602,0.0
653,-2.9622913164572373,0.0
654,1.5915702205169144,0.0
655,-0.7490889178390454,0.0
656,0.2717164754825868,0.0
657,-0.05178324736478238,0.0
658,0.05023093189400889,0.0
659,0.009894730746457631,0.0
660,0.062149527572203475,0.0
661,0.015379085126278802,0.0
662,0.06149950544987948,0.0
663,0.08245414630373255,0.0
664,-0.005072451612836263,0.0
665,-0.034160904165053615,0.0
666,-0.012037561822809737,0.0
667,1.0489617260939195,0.0
668,6.598183923729598,0.0
669,1.2361611980846594,0.0
670,-1.7334915533126602,0.0
671,1.2757979563432305,0.0
672,-0.5957643529633533,0.0
673,0.3217677782799642,0.0
674,-0.015304642710867733,0.0
675,-0.08800881638362966,0.0
676,-0.006094910672772582,0.0
677,-0.013450063773220725,0.0
678,0.09129577147514713,0.0
679,0.019758893320634026,0.0
680,-0.023635783383720167,0.0
681,-0.08581285764228569,0.0
682,0.015390352288489135,0.0
683,0.11385519365371838,0.0
684,2.709816249434683,0.0
685,6.825331619980559,0.0
686,-1.9527052296058252,0.0
687,0.42921608098888464,0.0
688,0.10825325990902972,0.0
689,-0.057704896057003525,0.0
690,0.11766363200981733,0.0
691,0.01679444480664964,0.0
692,0.029392154251732184,0.0
693,0.10472045983636896,0.0
694,0.05196408498626094,0.0
695,0.038685189349190595,0.0
696,0.07651215499948771,0.0
697,0.04045879084188919,0.0
698,-0.03864962790935023,0.0
699,0.030775547196788336,0.0
700,0.3790570769193855,0.0
701,4.752276185160424,0.0
702,4.6917880152397,0.0
703,-3.042370394337162,0.0
704,1.5611314077725806,0.0
705,-0.7650368029676479,0.0
706,0.3326264153505537,0.0
707,-0.0553680865015468,0.0
708,0.023439949866971517,0.0
709,-0.014239275306806434,0.0
710,0.03482665623303593,0.0
711,0.015757634118180732,0.0
712,0.10625070306934246,0.0
713,-0.018754484786457602,0.0
714,0.02215446316267059,0.0
715,0.06926705765343028,0.0
716,-0.01915453161125407,0.0
717,1.0951969128142214,0.0
718,6.60114704067404,0.0
719,1.155150073660117,0.0
720,-1.7426925696881337,0.0
721,1.1551011123283093,0.0
722,-0.589234478945554,0.0
723,0.28226713693551997,0.0
724,-0.0313251326468199,0.0
725,0.07701991468424854,0.0
726,0.013989707008459864,0.0
727,-0.039313769838519204,0.0
728,-0.00449943879867878,0.0
729,-0.004142589555928298,0.0
730,-0.013201799455050902,0.0
731,-0.09608999958844429,0.0
732,-0.01752976679112903,0.0
733,-0.009284530970358824,0.0
734,2.656473212490011,0.0
735,6.784630806080245,0.0
736,-2.081621681387512,0.0
737,0.3513565509829644,0.0
738,0.043109679214180595,0.0
739,-0.03449920926806976,0.0
740,-0.0549536227045464,0.0
741,0.03539499861447226,0.0
742,0.029006286490407332,0.0
743,-0.03930920171503331,0.0
744,-0.09953170165193405,0.0
745,-0.05930949610545918,0.0
746,0.07318864597410506,0.0
747,-0.05691064719538674,0.0
748,-0.021399460851222164,0.0
749,-0.02859934137831764,0.0
750,0.2509323463406628,0.0
751,4.622787754801571,0.0
752,4.6102457524117595,0.0
753,-3.1232689017628052,0.0
754,1.664590119526736,0.0
755,-0.80469660404021,0.0
756,0.18029145746798117,0.0
757,-0.16166001424349563,0.0
758,0.02429873415785922,0.0
759,-0.032584770761277734,0.0
760,-0.032824851856151936,0.0
761,-0.00024458736897388367,0.0
762,-0.02124000048983794,0.0
763,0.02311194175740124,0.0
764,-0.1560048637503302,0.0
765,-0.07117150321003803,0.0
766,0.027237495153520756,0.0
767,1.0013973401340923,0.0
768,6.500541276301618,0.0
769,1.1820327934176282,0.0
770,-1.7123547056464297,0.0
771,1.1606772326935937,0.0
772,-0.5893145708073124,0.0
773,0.1552571324057595,0.0
774,-0.15353335962693015,0.0
775,-0.12733903697937,0.0
776,-0.04899425029398215,0.0
777,-0.06506089367576937,0.0
778,-0.049395635117672844,0.0
779,-0.014482071818644388,0.0
780,-0.05835355855567996,0.0
781,-0.07996989605378332,0.0
782,-0.1024402191546639,0.0
783,0.09891471531507486,0.0
784,2.5928740530586167,0.0
785,6.782203570176942,0.0
786,-2.0372054811453446,0.0
787,0.3523292735893962,0.0
788,0.028097905691111872,0.0
789,-0.07109520159764937,0.0
790,0.11300265485354741,0.0
791,-0.07636161975817465,0.0
792,-0.023098916805547896,0.0
793,-0.010308956183765337,0.0
794,-0.06301079005051102,0.0
795,-0.03905069378997608,0.0
796,0.03082384841860983,0.0
797,-0.07132247372864262,0.0
798,-0.08954030334431216,0.0
799,0.01978841414079522,0.0
800,0.3773792890317365,0.0
801,4.592290203348105,0.0
802,4.5980068647832955,0.0
803,-2.9818548001903715,0.0
804,1.527646612991613,0.0
805,-0.890110534171423,0.0
806,0.3328280431952265,0.0
807,-0.0882453745152574,0.0
808,0.02852570176063525,0.0
809,-0.032498021446641094,0.0
810,-0.16636468488716705,0.0
811,-0.03036554776375319,0.0
812,-0.09221756410604229,0.0
813,-0.07744878913784459,0.0
814,-0.06184299861999918,0.0
815,0.015347317479064572,0.0
816,-0.06385438262819916,0.0
817,1.098015542339817,0.0
818,6.488289431887975,0.0
819,1.2271707008639383,0.0
820,-1.7394241608353531,0.0
821,1.1292903881748426,0.0
822,-0.5806477607728945,0.0
823,0.15696205487851086,0.0
824,-0.05339639051645016,0.0
825,0.05250708043677761,0.0
826,-0.011759789142724502,0.0
827,-0.03326793285430027,0.0
828,-0.09202070789754935,0.0
829,-0.04827136647178354,0.0
830,-0.053135666569751945,0.0
831,-0.04382180412989748,0.0
832,-0.011774492592266258,0.0
833,0.08365713585085198,0.0
834,2.7169998343014825,0.0
835,6.867887303696704,0.0
836,-2.0660810813828894,0.0
837,0.3728009067674202,0.0
838,-0.0051560184197684475,0.0
839,-0.15227205653083004,0.0
840,0.08863361896166982,0.0
841,-0.08458310095065416,0.0
842,0.04534741029393575,0.0
843,0.029342784452429146,0.0
844,-0.041572002307394364,0.0
845,0.019788849169268534,0.0
846,0.031065166355544533,0.0
847,-0.06495029169420116,0.0
848,0.009393403048436194,0.0
849,-0.058791936672964715,0.0
850,0.2792494054890901,0.0
851,4.652940930463875,0.0
852,4.589165540585279,0.0
853,-3.0957523824272197,0.0
854,1.541942259130764,0.0
855,-0.8600291864216543,0.0
856,0.20007917769146893,0.0
857,-0.24173977824990328,0.0
858,-0.03491893801116628,0.0
859,-0.09972776765324293,0.0
860,-0.10013649084800111,0.0
861,-0.08626303442671952,0.0
862,-0.15840117326862763,0.0
863,-0.1747059773968192,0.0
864,-0.10606143113303938,0.0
865,-0.06436260225869754,0.0
866,-0.10244545417341938,0.0
867,1.1127761241681497,0.0
868,6.501469201195703,0.0
869,1.114218703895888,0.0
870,-1.7786296359384803,0.0
871,1.223374979897006,0.0
872,-0.5371024790360979,0.0
873,0.2836915303206241,0.0
874,-0.04876646602321437,0.0
875,0.06292407150975143,0.0
876,0.010240832569932246,0.0
877,-0.020330252921240338,0.0
878,-0.0018526141354955651,0.0
879,-0.04782757525959149,0.0
880,-0.073876643792964,0.0
881,0.02617969270277664,0.0
882,-0.13908122060881478,0.0
883,0.07396435819545058,0.0
884,2.7367452808889574,0.0
885,6.76483667797257,0.0
886,-2.0837454087590066,0.0
887,0.38927618238160255,0.0
888,0.01133379336489053,0.0
889,-0.01205461176444634,0.0
890,0.057078251589060075,0.0
891,0.03999239253059201,0.0
892,0.07828055266497522,0.0
893,0.10013237523173246,0.0
894,0.021676877995968027,0.0
895,0.08566955898607888,0.0
896,0.046133724557751596,0.0
897,-0.0003165444038120066,0.0
898,0.06265705603733998,0.0
899,0.001819487608378939,0.0
900,0.34250009439984447,0.0
901,4.883764666301275,0.0
902,4.668160780964415,0.0
903,-2.888152874836874,0.0
904,1.6480944984362202,0.0
905,-0.6567900962840747,0.0
906,0.37647106331194363,0.0
907,0.07475881648087168,0.0
908,0.16128124310466843,0.0
909,0.10465343145886376,0.0
910,0.14857390371285575,0.0
911,0.1415003684403665,0.0
912,0.10154496297315883,0.0
913,-0.023058915336761104,0.0
914,0.15688844787663414,0.0
915,0.10205845350309156,0.0
916,0.09347563089020983,0.0
917,1.2720629980872349,0.0
918,6.597189713008241,0.0
919,1.1872607308779204,0.0
920,-1.6207580323779966,0.0
921,1.1672969403022684,0.0
922,-0.5531378394794597,0.0
923,0.37846045398156236,0.0
924,0.018338672645248306,0.0
925,0.04126183879249883,0.0
926,0.10960798841319513,0.0
927,0.08936730019338428,0.0
928,0.20882696274997647,0.0
929,0.08192425718959732,0.0
930,0.08252917151856266,0.0
931,0.057708231104389496,0.0
932,0.14458890675423042,0.0
933,0.19368509705411996,0.0
934,2.8389293330223384,0.0
935,6.850571024254101,0.0
936,-1.9635478442670073,0.0
937,0.4347838367700757,0.0
938,0.10168398615762256,0.0
939,0.12110438059719664,0.0
940,0.10440978549142785,0.0
941,0.04066337351289858,0.0
942,0.06385487622025234,0.0
943,0.05677837938788236,0.0
944,0.10393110152763177,0.0
945,0.020429089240146598,0.0
946,-0.06839909272794108,0.0
947,0.058582532429584444,0.0
948,0.03125616167924845,0.0
949,0.08728046955481122,0.0
950,0.39480302031194026,0.0
951,4.839730910970466,0.0
952,4.675196990081636,0.0
953,-2.8850662734739467,0.0
954,1.6349091132390807,0.0
955,-0.6411321949994109,0.0
956,0.45247167366660734,0.0
957,-0.0030708769846231054,0.0
958,0.02572584195229021,0.0
959,0.1487122483137922,0.0
960,0.03215233170429922,0.0
961,0.04616497965624986,0.0
962,0.005795214360695862,0.0
963,0.05974946831434354,0.0
964,0.1321316075677212,0.0
965,-0.0016390642048682638,0.0
966,0.04582892910924453,0.0
967,1.1329205528950534,0.0
968,6.573656313620925,0.0
969,1.0939716305227172,0.0
970,-1.6348478740184398,0.0
971,1.2078901218662925,0.0
972,-0.5227436204422345,0.0
973,0.422280340851068,0.0
974,-0.1154612979510436,0.0
975,-0.0044199586063069785,0.0
976,-0.04218487777298473,0.0
977,-0.018236506416454204,0.0
978,-0.022914419545054306,0.0
979,-0.01926419914455282,0.0
980,-0.07382843682525408,0.0
981,0.016351965513982186,0.0
982,-0.1286018313574854,0.0
983,0.10419008995256294,0.0
984,2.810506053855159,0.0
985,6.795134254156052,0.0
986,-2.135134276404822,0.0
987,0.5488993690748252,0.0
988,0.09072411405659325,0.0
989,0.08672393040676082,0.0
990,0.09826686312583133,0.0
991,0.09931547365016322,0.0
992,-0.018325964730859193,0.0
993,0.13978973203518316,0.0
994,0.08665617965993933,0.0
995,0.016145531195129237,0.0
996,0.024203995869340217,0.0
997,0.0312448134764917,0.0
998,0.12681566323748258,0.0
999,-0.045665554502489505,0.0
1000,0.32724367562135637,0.0
1001,4.972640727666962,0.0
1002,4.648674911427661,0.0
1003,-2.9645366701742257,0.0
1004,1.6046646830562734,0.0
1005,-0.7403078893618245,0.0
1006,0.3390130840419827,0.0
1007,-0.06795525459372052,0.0
1008,0.07884925371657425,0.0
1009,0.053686347079401814,0.0
1010,0.04195425418563163,0.0
1011,0.09926950049728667,0.0
1012,0.027277277989500602,0.0
1013,0.06964963926023558,0.0
1014,-0.00484380304399416,0.0
1015,-0.001519576093446098,0.0
1016,-0.03277068349818209,0.0
1017,1.168782079524743,0.0
1018,6.5952808652209285,0.0
1019,1.0092410334005015,0.0
1020,-1.7159764890846685,0.0
1021,1.172516186495657,0.0
1022,-0.5681401272969232,0.0
1023,0.24918491259478298,0.0
1024,-0.0681102450760368,0.0
1025,-0.0265032383015504,0.0
1026,-0.013015898402915296,0.0
1027,0.04352957834713912,0.0
1028,0.09006088974163143,0.0
1029,0.09124760813397813,0.0
1030,0.03943960846799979,0.0
1031,0.020244700155002404,0.0
1032,-0.02054680774959801,0.0
1033,0.18155950875875798,0.0
1034,2.8050276958881595,0.0
1035,6.813548243840127,0.0
1036,-1.9570297062360962,0.0
1037,0.516978884744578,0.0
1038,0.048865650147550344,0.0
1039,-0.016177031463192458,0.0
1040,0.08366205122785653,0.0
1041,0.11337935694227899,0.0
1042,0.00413651978451432,0.0
1043,0.09072408552982786,0.0
1044,0.13799637899338488,0.0
1045,0.06872205204107895,0.0
1046,0.013084683275476613,0.0
1047,0.13290012713386443,0.0
1048,0.07145901010352412,0.0
1049,0.05519400947677469,0.0
1050,0.3570107879608346,0.0
1051,4.89385459786133,0.0
1052,4.563718673092067,0.0
1053,-2.950090749526851,0.0
1054,1.526835917865905,0.0
1055,-0.6829490821918444,0.0
1056,0.32198689852998,0.0
1057,-0.08599221151603652,0.0
1058,-0.006027711178504154,0.0
1059,-0.0827367943918028,0.0
1060,-0.03199062333955695,0.0
1061,-0.021555756539048954,0.0
1062,0.03292136205308234,0.0
1063,0.010043848008023618,0.0
1064,0.044129788091817564,0.0
1065,0.08457088170329169,0.0
1066,0.045395425076115464,0.0
1067,1.156535229793029,0.0
1068,6.629424993108658,0.0
1069,1.1435640045164255,0.0
1070,-1.6160685524117904,0.0
1071,1.2005778802372125,0.0
1072,-0.5782506746530973,0.0
1073,0.3581922662541742,0.0
1074,0.01977857262069842,0.0
1075,0.05530442430990509,0.0
1076,0.11736955904660706,0.0
1077,0.07030969531121269,0.0
1078,0.03162802402621942,0.0
1079,0.07017364269649612,0.0
1080,0.13844449290894856,0.0
1081,0.09061096264991143,0.0
1082,0.04887820813071202,0.0
1083,0.06700298708915205,0.0
1084,2.857048355727383,0.0
1085,6.817164307958844,0.0
1086,-2.012014202273157,0.0
1087,0.4353548883859837,0.0
1088,0.08517565782300418,0.0
1089,0.09277080873772371,0.0
1090,0.10151375230979147,0.0
1091,0.043290170866354616,0.0
1092,0.110862587659735,0.0
1093,0.020295690414563958,0.0
1094,0.027320170595680666,0.0
1095,0.008667722982823159,0.0
1096,0.03257631685320725,0.0
1097,-0.0121143592442772,0.0
1098,-0.03683926729400988,0.0
1099,0.007823364585945843,0.0
1100,0.45505422471546153,0.0
1101,4.8555479744413725,0.0
1102,4.598407212219877,0.0
1103,-2.979310187440905,0.0
1104,1.6430821710317687,0.0
1105,-0.7816267160550042,0.0
1106,0.22592646801167765,0.0
1107,-0.2194972883360353,0.0
1108,0.052189380999439136,0.0
1109,0.0493968602685424,0.0
1110,0.1316502802946936,0.0
1111,0.00029231722795730955,0.0
1112,0.03957679584824497,0.0
1113,0.04018061822180205,0.0
1114,-0.030989752218968578,0.0
1115,-0.015160489856040755,0.0
1116,0.1074644546165501,0.0
1117,1.184943814661438,0.0
1118,6.627924166206448,0.0
1119,1.0922423139125417,0.0
1120,-1.6012062026191671,0.0
1121,1.1439841943136586,0.0
1122,-0.5382992321129103,0.0
1123,0.323649140867763,0.0
1124,-0.04743553200755516,0.0
1125,0.16090902984894875,0.0
1126,0.0494457624136322,0.0
1127,0.14497982030324555,0.0
1128,0.0034390730069044917,0.0
1129,0.11136011504962197,0.0
1130,0.06864609500006891,0.0
1131,0.06473109646336486,0.0
1132,0.1725276387730252,0.0
1133,0.0696824580064643,0.0
1134,2.780529577073006,0.0
1135,6.821453362755439,0.0
1136,-2.0771378448044544,0.0
1137,0.49681820832130935,0.0
1138,-0.0008264128610676242,0.0
1139,-0.05883966215338218,0.0
1140,-0.010196323768675726,0.0
1141,0.053506987365256956,0.0
1142,0.006030842942529882,0.0
1143,0.0638945789412488,0.0
1144,0.0669069454219569,0.0
1145,0.1086161248798374,0.0
1146,0.05586926245357584,0.0
1147,0.05595449054657837,0.0
1148,0.029941492827945462,0.0
1149,0.035751094427959665,0.0
1150,0.3101931647906426,0.0
1151,5.022713643038773,0.0
1152,4.648230672555722,0.0
1153,-2.8891720990650382,0.0
1154,1.6224160727910828,0.0
1155,-0.6970000000154206,0.0
1156,0.37763441642064477,0.0
1157,-0.06587524865973324,0.0
1158,0.061888729141561453,0.0
1159,0.07694929687901375,0.0
1160,-0.005792469143768849,0.0
1161,0.017976600849020558,0.0
1162,-0.01760281054917688,0.0
1163,0.10056424746981432,0.0
1164,-0.018988155048118984,0.0
1165,0.06336819770769443,0.0
1166,0.059388038993999664,0.0
1167,1.2223467481558776,0.0
1168,6.702630464305252,0.0
1169,0.977146087120818,0.0
1170,-1.574236570648198,0.0
1171,1.1272256863524055,0.0
1172,-0.4623061945737743,0.0
1173,0.340663688444238,0.0
1174,0.03130397468670314,0.0
1175,0.06142320476110149,0.0
1176,0.08584146748869545,0.0
1177,0.034079561417950585,0.0
1178,0.012362596144867243,0.0
1179,0.031987336971732026,0.0
1180,0.05889423879608616,0.0
1181,-0.01569586629955889,0.0
1182,-0.013136795374707116,0.0
1183,0.0454625161384115,0.0
1184,2.7726040697062673,0.0
1185,6.773148166511132,0.0
1186,-2.188874428891591,0.0
1187,0.4657075874752115,0.0
1188,-0.01416900970382521,0.0
1189,-0.12725985293051478,0.0
1190,0.025839602277869668,0.0
1191,0.026009693801655936,0.0
1192,-0.027922340775480555,0.0
1193,-0.07419753212788228,0.0
1194,-0.047996886690021265,0.0
1195,0.03243364930725566,0.0
1196,0.05266726137413803,0.0
1197,0.0409869726077885,0.0
1198,0.010369163021590126,0.0
1199,-0.09069895848644006,0.0
1200,0.4327763633616132,0.0
1201,4.809855503943031,0.0
1202,4.497570710692669,0.0
1203,-2.9947183258764527,0.0
1204,1.5475703748680087,0.0
1205,-0.7548909532632726,0.0
1206,0.3514852500185886,0.0
1207,-0.032881597324443165,0.0
1208,0.14755764404371663,0.0
1209,0.005349708910237123,0.0
1210,-0.011776555483312051,0.0
1211,0.051096305529364096,0.0
1212,-0.0248607289623105,0.0
1213,-0.04469437891480488,0.0
1214,-0.03712105309338465,0.0
1215,0.012070593253941187,0.0
1216,0.04663678675261251,0.0
1217,1.1409759180848809,0.0
1218,6.639300622859112,0.0
1219,0.8795538387868124,0.0
1220,-1.7232261602818104,0.0
1221,1.1649102789249217,0.0
1222,-0.6189427576861586,0.0
1223,0.20207801539555387,0.0
1224,-0.06700326118489783,0.0
1225,-0.05055925369695479,0.0
1226,0.011435271171651594,0.0
1227,0.01348663779230164,0.0
1228,-0.011649212911533181,0.0
1229,0.12710500390877977,0.0
1230,0.02073502385530973,0.0
1231,0.12194077287894868,0.0
1232,0.0866237925408992,0.0
1233,0.10973535157057049,0.0
1234,2.822385707638495,0.0
1235,6.68394946902797,0.0
1236,-2.109329969007014,0.0
1237,0.49875539423753273,0.0
1238,-0.08619481757346399,0.0
1239,0.07601199738104357,0.0
1240,-0.05678099649008677,0.0
1241,0.008700834803584152,0.0
1242,-0.0032940291617181497,0.0
1243,-0.01627012557906964,0.0
1244,0.015254802528176476,0.0
1245,-0.04953142123334031,0.0
1246,-0.013519610825630093,0.0
1247,0.0020704396550408483,0.0
1248,0.07428874161776026,0.0
1249,0.04181293916273018,0.0
1250,0.40567597602829114,0.0
1251,4.950627616088367,0.0
1252,4.588324559711827,0.0
1253,-2.983099024709732,0.0
1254,1.5988051551526383,0.0
1255,-0.8345631860733576,0.0
1256,0.2899302593356749,0.0
1257,-0.098954794305882,0.0
1258,0.047528877630570655,0.0
1259,-0.09851414423180099,0.0
1260,-0.08191770231938103,0.0
1261,-0.06864249148083013,0.0
1262,0.04703938368463562,0.0
1263,-0.01903655619613066,0.0
1264,0.0025897437490686043,0.0
1265,-0.021381623488032235,0.0
1266,0.041154301651006114,0.0
1267,1.1930982142336077,0.0
1268,6.59395163579238,0.0
1269,1.0013725756076661,0.0
1270,-1.6291595433238464,0.0
1271,1.0922358476695297,0.0
1272,-0.5946490228093666,0.0
1273,0.23004276851220548,0.0
1274,-0.03474269472442499,0.0
1275,-0.011906461241622056,0.0
1276,-0.01147296693763997,0.0
1277,0.026932583799509496,0.0
1278,0.12431413943729425,0.0
1279,0.1941625931294169,0.0
1280,0.02116682931442325,0.0
1281,0.015201375762294751,0.0
1282,-0.1049792189884973,0.0
1283,0.0453117421625758,0.0
1284,2.8154859805981305,0.0
1285,6.842324667180265,0.0
1286,-2.097225767020213,0.0
1287,0.5263715492216804,0.0
1288,0.046511024002007836,0.0
1289,0.07176835600999731,0.0
1290,0.05559610247801536,0.0
1291,-0.01935653596177177,0.0
1292,0.08348950269098657,0.0
1293,0.026709902449280176,0.0
1294,0.05852450348097536,0.0
1295,-0.056325366671151095,0.0
1296,-0.003470025830105805,0.0
1297,-0.10548133165963419,0.0
1298,0.029948043257315295,0.0
1299,0.047634081331377545,0.0
1300,0.35451442315262516,0.0
1301,4.89846186223225,0.0
1302,4.419765338383731,0.0
1303,-3.1206478050873683,0.0
1304,1.4986374916825338,0.0
1305,-0.7671496198568948,0.0
1306,0.2504525308594732,0.0
1307,-0.11169650789325129,0.0
1308,0.08427066011111278,0.0
1309,-0.06149075539101925,0.0
1310,0.008386811189688932,0.0
1311,-0.11227180112262138,0.0
1312,0.0659490126396953,0.0
1313,-0.03024460944890616,0.0
1314,-0.016820066929202702,0.0
1315,-0.13650661321110358,0.0
1316,-0.10193934705100074,0.0
1317,1.1773982344418794,0.0
1318,6.591334616190408,0.0
1319,0.8552968521962536,0.0
1320,-1.628158348550466,0.0
1321,0.9373524201324863,0.0
1322,-0.6555677273391606,0.0
1323,0.12062619645573797,0.0
1324,-0.12612759493016779,0.0
1325,-0.10056700747193656,0.0
1326,-0.021185754158339717,0.0
1327,0.02077599262375296,0.0
1328,-0.027361830141102265,0.0
1329,-0.1275743015032251,0.0
1330,-0.016824173225679636,0.0
1331,-0.14008299506633898,0.0
1332,0.023220260421768217,0.0
1333,0.009644855072479058,0.0
1334,2.820044359622259,0.0
1335,6.62935492274767,0.0
1336,-2.2678763810257023,0.0
1337,0.506033796319754,0.0
1338,-0.08109270012441268,0.0
1339,-0.16116649878552342,0.0
1340,-0.09452742565568989,0.0
1341,-0.03061690488618715,0.0
1342,0.011381370517136287,0.0
1343,-0.05909062290364182,0.0
1344,-0.07160248449559077,0.0
1345,-0.0471847304278953,0.0
1346,-0.06757603537466217,0.0
1347,0.007966891419674133,0.0
1348,-0.00573513043767274,0.0
1349,-0.07464735037558243,0.0
1350,0.3034413114543337,0.0
1351,5.02986010787834,0.0
1352,4.528811498301756,0.0
1353,-2.9724683076532976,0.0
1354,1.5184351420877469,0.0
1355,-0.8128955459710387,0.0
1356,0.24231196275517156,0.0
1357,-0.11572397832093685,0.0
1358,0.01398197195547381,0.0
1359,-0.1029415882638239,0.0
1360,-0.08597051017216015,0.0
1361,-0.04030350254776659,0.0
1362,0.03212792312050494,0.0
1363,-0.09324668489972122,0.0
1364,-0.07632640717198184,0.0
1365,-0.05237085646300878,0.0
1366,-0.03099254241144373,0.0
1367,1.053049368337327,0.0
1368,6.593510413583964,0.0
1369,0.7660650669209099,0.0
1370,-1.7401038820206385,0.0
1371,0.9088729022981239,0.0
1372,-0.6727048140143723,0.0
1373,0.20692010456824486,0.0
1374,-0.09385198418104584,0.0
1375,-0.019091593587658995,0.0
1376,-0.13543631645686552,0.0
1377,-0.12302809356329109,0.0
1378,-0.1358395661913004,0.0
1379,-0.08450030939134544,0.0
1380,-0.024187385543846723,0.0
1381,-0.07536824737099149,0.0
1382,-0.08102004577566688,0.0
1383,-0.008680923232566438,0.0
1384,2.7586014021491567,0.0
1385,6.611137625491488,0.0
1386,-2.208537946571774,0.0
1387,0.41691467000331195,0.0
1388,-0.045384739695273846,0.0
1389,-0.10666504835316062,0.0
1390,-0.013525551634736094,0.0
1391,-0.15780363526521166,0.0
1392,-0.008246662701705564,0.0
1393,-0.10869662877337319,0.0
1394,-0.015723196616317388,0.0
1395,-0.01690821531741605,0.0
1396,-0.11297902034032918,0.0
1397,-0.12071134082940105,0.0
1398,-0.0069605959336659085,0.0
1399,-0.12073310080140531,0.0
1400,0.16200309948304947,0.0
1401,4.843560371499242,0.0
1402,4.3846482699544564,0.0
1403,-2.9780385006291175,0.0
1404,1.491345741623859,0.0
1405,-0.9181269223400094,0.0
1406,0.37019290347339295,0.0
1407,-0.04979865145928693,0.0
1408,-0.07372134454674953,0.0
1409,0.01167794944541825,0.0
1410,-0.027499641216469802,0.0
1411,-0.002963379552501373,0.0
1412,0.027120582953944494,0.0
1413,-0.024872124094046582,0.0
1414,-0.024504293613381183,0.0
1415,-0.01229133901165106,0.0
1416,-0.07035135873828899,0.0
1417,1.1494455486227013,0.0
1418,6.6226471597517556,0.0
1419,0.7434262371795248,0.0
1420,-1.683500580243123,0.0
1421,1.0018006090876714,0.0
1422,-0.6707513842650262,0.0
1423,0.18779136440812316,0.0
1424,-0.1963500806626018,0.0
1425,-0.05064521306085394,0.0
1426,-0.1586251718760507,0.0
1427,-0.08310836910973253,0.0
1428,-0.17302215562857653,0.0
1429,-0.11903230113881226,0.0
1430,-0.010629376311439655,0.0
1431,-0.01787087687485852,0.0
1432,-0.07968797774481828,0.0
1433,-0.02298094504443717,0.0
1434,2.8557939121918823,0.0
1435,6.577724538162556,0.0
1436,-2.2278351042060205,0.0
1437,0.5912215160072634,0.0
1438,-0.104533978510988,0.0
1439,-0.11490624832709759,0.0
1440,-0.14669437575857303,0.0
1441,-0.11524816074364741,0.0
1442,-0.03350360584746951,0.0
1443,-0.03971380898631367,0.0
1444,-0.04053877893243341,0.0
1445,-0.09478235960188583,0.0
1446,-0.0144592682263823,0.0
1447,-0.0964217824960032,0.0
1448,-0.0011575502737632415,0.0
1449,-0.10641702524173319,0.0
1450,0.3437384958968554,0.0
1451,4.958545161068612,0.0
1452,4.36547369530515,0.0
1453,-3.019016092028331,0.0
1454,1.4779527210525099,0.0
1455,-0.8237335498984746,0.0
1456,0.33590926130925053,0.0
1457,-0.1594615351589528,0.0
1458,0.0226551443005249,0.0
1459,-0.09367563036681495,0.0
1460,0.023365043688367483,0.0
1461,-0.022981529966149595,0.0
1462,0.007221136769529714,0.0
1463,0.0340591197637627,0.0
1464,0.021312985971842946,0.0
1465,-0.04705098791643716,0.0
1466,-0.13673085509786262,0.0
1467,1.130527153756263,0.0
1468,6.62025510082763,0.0
1469,0.7962791182944414,0.0
1470,-1.6714338693286077,0.0
1471,1.0480774979756236,0.0
1472,-0.5714039201400658,0.0
1473,0.15682125952463416,0.0
1474,-0.13870242503881913,0.0
1475,-0.05906725449392241,0.0
1476,-0.04211134102508318,0.0
1477,-0.04683703187185455,0.0
1478,-0.044408561545963204,0.0
1479,-0.008010563543625802,0.0
1480,0.06762211126211662,0.0
1481,-0.05922969812298394,0.0
1482,0.057552552016626915,0.0
1483,0.03698701161539343,0.0
1484,2.8660100644161255,0.0
1485,6.623372733086756,0.0
1486,-2.3617164055212863,0.0
1487,0.5622178861216696,0.0
1488,-0.16808741391474322,0.0
1489,-0.05201032069327725,0.0
1490,-0.08898488153819625,0.0
1491,-0.022075991333147617,0.0
1492,-0.09346775812381011,0.0
1493,-0.0657243841492982,0.0
1494,-0.10505197756092316,0.0
1495,-0.08084394309247729,0.0
1496,-0.027575767565250972,0.0
1497,0.0035191181792245466,0.0
1498,-0.005178948797285428,0.0
1499,-0.06033013304438575,0.0
1500,0.3593213251443715,0.0
1501,4.974179948859729,0.0
1502,4.259404266166248,0.0
1503,-2.978424495790508,0.0
1504,1.5238909935305025,0.0
1505,-0.8202741372827418,0.0
1506,0.3108760642981793,0.0
1507,-0.27282090512776147,0.0
1508,0.0033269671672218858,0.0
1509,-0.06897584367464009,0.0
1510,0.0002469793831699693,0.0
1511,-0.030603763167365218,0.0
1512,-0.07814049277495565,0.0
1513,0.03717620559866639,0.0
1514,-0.019511526406951404,0.0
1515,-0.03723735848654751,0.0
1516,-0.034300270989289054,0.0
1517,1.16263035776821,0.0
1518,6.613833477715558,0.0
1519,0.7689018028937079,0.0
1520,-1.6425365822380016,0.0
1521,1.0107185495537794,0.0
1522,-0.5378494935747151,0.0
1523,0.22207429640783616,0.0
1524,-0.12011230432799488,0.0
1525,0.05123561755437686,0.0
1526,-0.03485442902222124,0.0
1527,-0.07274894532196916,0.0
1528,0.009802444709731274,0.0
1529,-0.017427480446480986,0.0
1530,-0.045743983127673374,0.0
1531,-0.07802804200654517,0.0
1532,0.04939485928413072,0.0
1533,0.020794548138794538,0.0
1534,2.989332985698784,0.0
1535,6.622046034680694,0.0
1536,-2.389029288665801,0.0
1537,0.5940554460261461,0.0
1538,-0.05469151032911229,0.0
1539,-0.07358698486178102,0.0
1540,-0.12801906361095103,0.0
1541,-0.041642053486009696,0.0
1542,-0.07623490000056975,0.0
1543,-0.06192342569849324,0.0
1544,-0.07015246354698226,0.0
1545,0.0036919225605519523,0.0
1546,-0.10317133723215177,0.0
1547,-0.03091054233520123,0.0
1548,-0.041907192770286136,0.0
1549,-0.03778678764390193,0.0
1550,0.2739388220738266,0.0
1551,4.8932013290224745,0.0
1552,4.235919618133148,0.0
1553,-3.0182640528644216,0.0
1554,1.566226093813346,0.0
1555,-0.8301954410272375,0.0
1556,0.2596311910792043,0.0
1557,-0.1484868287909358,0.0
1558,0.02778166972892776,0.0
1559,-0.041684668638392375,0.0
1560,-0.06173428656697996,0.0
1561,-0.021863519550200203,0.0
1562,-0.042400774664705425,0.0
1563,0.012834860246101629,0.0
1564,-0.04465436021940218,0.0
1565,0.07316488107705035,0.0
1566,-0.05386008223168394,0.0
1567,1.1440849166141938,0.0
1568,6.5349645426124665,0.0
1569,0.7352001750095111,0.0
1570,-1.5235881009177685,0.0
1571,0.9884340992742613,0.0
1572,-0.5717324546686862,0.0
1573,0.15932062187440627,0.0
1574,-0.07647332312133065,0.0
1575,-0.051377999060421876,0.0
1576,-0.056639488903343096,0.0
1577,0.018567770345138727,0.0
1578,-0.0580214269837478,0.0
1579,-0.04657375492086524,0.0
1580,-0.07134499742829017,0.0
1581,0.021116832664246715,0.0
1582,-0.04137765739972138,0.0
1583,-0.011787942872529733,0.0
1584,2.9091387285638217,0.0
1585,6.65259957863756,0.0
1586,-2.3417569814350396,0.0
1587,0.4845064139127001,0.0
1588,-0.15785721265480337,0.0
1589,-0.0038675905374150055,0.0
1590,-0.04423860396856497,0.0
1591,-0.05967800285504154,0.0
1592,-0.0751884960646172,0.0
1593,-0.0025210386409261487,0.0
1594,-0.0047862429349531735,0.0
1595,0.02604873727140651,0.0
1596,-0.10363095650646167,0.0
1597,-0.06999799812672843,0.0
1598,-0.004876317675220773,0.0
1599,-0.09471724213145288,0.0
1600,0.39064899745430076,0.0
1601,4.925737412850115,0.0
1602,4.246434996276596,0.0
1603,-2.997536267092837,0.0
1604,1.5972928758814884,0.0
1605,-0.8093602750889533,0.0
1606,0.35183476690694615,0.0
1607,-0.1124724631170455,0.0
1608,0.06484232763229486,0.0
1609,-0.14471204259369097,0.0
1610,0.045158062118356795,0.0
1611,-0.0828960584350665,0.0
1612,0.02385602732906963,0.0
1613,-0.02866264915292745,0.0
1614,-0.09693088437491518,0.0
1615,-0.05710554170961609,0.0
1616,-0.14194680424213604,0.0
1617,1.1388625395366019,0.0
1618,6.655622105244688,0.0
1619,0.8036433264205414,0.0
1620,-1.5866647383296804,0.0
1621,0.9419651255861632,0.0
1622,-0.5409334262551011,0.0
1623,0.1259349194336127,0.0
1624,-0.19948424376358506,0.0
1625,-0.06947495796194804,0.0
1626,-0.11180830093504736,0.0
1627,-0.052593847486404,0.0
1628,-0.12634334441700226,0.0
1629,-0.04364360220896381,0.0
1630,-0.023753183448563038,0.0
1631,0.0015632240472151504,0.0
1632,-0.0739228316408552,0.0
1633,-0.10864936375235179,0.0
1634,2.8829100175712425,0.0
1635,6.644526528338265,0.0
1636,-2.2713971756562685,0.0
1637,0.5435464873708973,0.0
1638,-0.19703226549904362,0.0
1639,-0.0769419968629708,0.0
1640,-0.021799032993092417,0.0
1641,-0.0013599736837849657,0.0
1642,0.021325533029713937,0.0
1643,0.0879167274724402,0.0
1644,-0.002894734694822862,0.0
1645,-0.00847574161524657,0.0
1646,-0.018949130530027176,0.0
1647,0.0197244691465136,0.0
1648,-0.015109680105346503,0.0
1649,-0.024318673723879688,0.0
1650,0.3248719452746507,0.0
1651,4.962427490399004,0.0
1652,4.246974275905751,0.0
1653,-2.965558046868547,0.0
1654,1.6280327482667154,0.0
1655,-0.6831475386054805,0.0
1656,0.3671956412690021,0.0
1657,-0.05492337004874007,0.0
1658,0.07566547270745896,0.0
1659,0.12366565363216596,0.0
1660,0.08698020664251369,0.0
1661,0.026317552236210656,0.0
1662,0.1031980556486354,0.0
1663,0.04303576085644801,0.0
1664,0.06916415553900926,0.0
1665,0.033789127440693206,0.0
1666,-0.03604983482319991,0.0
1667,1.1890553688435697,0.0
1668,6.665193748830971,0.0
1669,0.8350762967338187,0.0
1670,-1.529314259987092,0.0
1671,0.9947255404253568,0.0
1672,-0.48608952653411325,0.0
1673,0.214413267393605,0.0
1674,-0.1045053180106306,0.0
1675,-0.08359567051690192,0.0
1676,0.010347440499644443,0.0
1677,-0.0006127302761754286,0.0
1678,-0.09488811453777377,0.0
1679,0.0014637415614748277,0.0
1680,-0.0811556545762075,0.0
1681,-0.013783407823821512,0.0
1682,0.0009399605992349378,0.0
1683,0.09059295037546655,0.0
1684,2.9450298858144652,0.0
1685,6.631472000240226,0.0
1686,-2.291795681798565,0.0
1687,0.593757413374924,0.0
1688,-0.0604478501708372,0.0
1689,0.09079453092221128,0.0
1690,0.06706824504459322,0.0
1691,0.10181668433649393,0.0
1692,0.028931770081921136,0.0
1693,0.01413812397285746,0.0
1694,-0.05989906525485768,0.0
1695,-0.004468790835590798,0.0
1696,0.025419768389165428,0.0
1697,-0.003125535090459125,0.0
1698,0.008382224236755123,0.0
1699,-0.0275253183832996,0.0
1700,0.44752670251399446,0.0
1701,5.114634932413099,0.0
1702,4.311790460663674,0.0
1703,-2.8946103985587284,0.0
1704,1.6076497271875,0.0
1705,-0.7602963385584647,0.0
1706,0.3154392349695732,0.0
1707,-0.06540278743945802,0.0
1708,0.08720193530553438,0.0
1709,-0.05562565581012334,0.0
1710,0.09248819957229727,0.0
1711,0.02170400037514497,0.0
1712,0.13077932900451256,0.0
1713,-0.05546334274893668,0.0
1714,0.04932460262096587,0.0
1715,-0.0426602601891765,0.0
1716,-0.08295846791654639,0.0
1717,1.2566419926803836,0.0
1718,6.7207496143362455,0.0
1719,0.7708890108045229,0.0
1720,-1.482843584245171,0.0
1721,1.080352176707295,0.0
1722,-0.6058471411668234,0.0
1723,0.18559556162002486,0.0
1724,-0.06381468973877763,0.0
1725,0.07875007167458078,0.0
1726,-0.03250943899620292,0.0
1727,0.02020273615254231,0.0
1728,-0.08765491302906075,0.0
1729,-0.11772463992353399,0.0
1730,0.0027235867487466203,0.0
1731,-0.011172253277250651,0.0
1732,-0.04198613313764871,0.0
1733,0.05126118225766159,0.0
1734,2.960517359975234,0.0
1735,6.6511737837317595,0.0
1736,-2.224619877290042,0.0
1737,0.6310646530040869,0.0
1738,-0.12130620851546252,0.0
1739,-0.011680918212697941,0.0
1740,-0.035022874378578345,0.0
1741,-0.008401280454844902,0.0
1742,0.052485289926380706,0.0
1743,0.025316458829122104,0.0
1744,-0.03314036606207748,0.0
1745,0.05878110184278566,0.0
1746,0.03141037451428347,0.0
1747,0.03530694014474476,0.0
1748,-0.013610331526580501,0.0
1749,0.022844897250052475,0.0
1750,0.34527508955838704,0.0
1751,5.116012437452736,0.0
1752,4.3439181163864955,0.0
1753,-2.8878266319012544,0.0
1754,1.7495914409220488,0.0
1755,-0.7553265265280712,0.0
1756,0.32616093637234,0.0
1757,-0.15376960161501602,0.0
1758,0.003456992979625033,0.0
1759,-0.04310834343547999,0.0
1760,0.07418269408568141,0.0
1761,0.01230978325535583,0.0
1762,0.044838671667543524,0.0
1763,-0.002234411267205378,0.0
1764,0.02024632140149019,0.0
1765,0.014475637017785085,0.0
1766,0.04532692354714982,0.0
1767,1.3593773459995928,0.0
1768,6.649517855738396,0.0
1769,0.6512691105005275,0.0
1770,-1.3810174825134716,0.0
1771,1.0706976530885313,0.0
1772,-0.48110033902184995,0.0
1773,0.20328141509451475,0.0
1774,-0.1012613609407331,0.0
1775,-0.006295473209966462,0.0
1776,-0.08516155327470487,0.0
1777,0.05263105453378662,0.0
1778,-0.041160890027361216,0.0
1779,0.046083386987784504,0.0
1780,-0.02506253763403412,0.0
1781,0.004275296313767069,0.0
1782,0.05431560238840695,0.0
1783,-0.03175837994079413,0.0
1784,2.9291469273181288,0.0
1785,6.673907329835031,0.0
1786,-2.360126070651342,0.0
1787,0.5539824988927441,0.0
1788,-0.07956884756356954,0.0
1789,0.03766791998422715,0.0
1790,-0.013444117411066492,0.0
1791,-0.0029110602093999124,0.0
1792,0.061277642422398214,0.0
1793,0.007245349065851264,0.0
1794,0.0652415758218485,0.0
1795,0.037054906466627964,0.0
1796,0.040842988825133424,0.0
1797,0.04333340627363308,0.0
1798,0.023544505426561425,0.0
1799,-0.08552677850057588,0.0
1800,0.2630741859500077,0.0
1801,5.116268814174375,0.0
1802,4.161406204182464,0.0
1803,-2.9859111304649373,0.0
1804,1.5924532133294635,0.0
1805,-0.8217126873066601,0.0
1806,0.2720432410563398,0.0
1807,-0.1847795881372774,0.0
1808,-0.019965997968016985,0.0
1809,-0.07258719687956343,0.0
1810,-0.09228363127311116,0.0
1811,-0.022933158289301037,0.0
1812,-0.00619070344287119,0.0
1813,-0.10071017418913074,0.0
1814,-0.01871841174606704,0.0
1815,0.03921873560809139,0.0
1816,-0.1074824438163764,0.0
1817,1.226049247346651,0.0
1818,6.705935874138596,0.0
1819,0.5763799228455521,0.0
1820,-1.4051165362586473,0.0
1821,0.9601486696076814,0.0
1822,-0.5719770092786423,0.0
1823,0.013389088146906786,0.0
1824,-0.10883904442908063,0.0
1825,-0.10979668656647346,0.0
1826,-0.2021800022669906,0.0
1827,-0.040707887764981375,0.0
1828,-0.14017937338049524,0.0
1829,-0.09335561031656327,0.0
1830,-0.1805845305012438,0.0
1831,-0.018340168083411296,0.0
1832,-0.12623064245130777,0.0
1833,0.04319865879526404,0.0
1834,2.8491589620036315,0.0
1835,6.525927987939758,0.0
1836,-2.4217775490146063,0.0
1837,0.5455295562269926,0.0
1838,-0.14675113483792698,0.0
1839,-0.015713789267814936,0.0
1840,0.02663467121574388,0.0
1841,0.08443378943009493,0.0
1842,0.06666431551149879,0.0
1843,0.0010207304795139226,0.0
1844,0.12828435026254853,0.0
1845,0.016443989927985205,0.0
1846,-0.010681871875513064,0.0
1847,-0.0966673838660319,0.0
1848,-0.025664678939826963,0.0
1849,-0.01294768634580521,0.0
1850,0.33299532176109836,0.0
1851,5.031704576658177,0.0
1852,4.151890580516666,0.0
1853,-3.043184683509483,0.0
1854,1.6168980280540346,0.0
1855,-0.8536941644961212,0.0
1856,0.2858621707881557,0.0
1857,-0.1411133346652108,0.0
1858,0.0052010550311233986,0.0
1859,-0.11749406790664194,0.0
1860,0.01585778283118565,0.0
1861,-0.027710659701083454,0.0
1862,-0.062332868850892516,0.0
1863,-0.07763537752683738,0.0
1864,-0.07503058217517136,0.0
1865,-0.07992793300788113,0.0
1866,-0.016009652766620988,0.0
1867,1.181587532417245,0.0
1868,6.747542678716519,0.0
1869,0.4937333626697733,0.0
1870,-1.6376129873148917,0.0
1871,0.9703334066819861,0.0
1872,-0.6320567537304362,0.0
1873,0.05351918234914438,0.0
1874,-0.1825579428294499,0.0
1875,0.0034692000512338422,0.0
1876,-0.1977692201727203,0.0
1877,-0.051688086798645456,0.0
1878,-0.26550226795784704,0.0
1879,-0.04003245401481668,0.0
1880,0.01702485584172056,0.0
1881,-0.1736384324837914,0.0
1882,0.006337107442518766,0.0
1883,-0.08269069598313628,0.0
1884,2.912745716626041,0.0
1885,6.542588186507031,0.0
1886,-2.4752577656574632,0.0
1887,0.6225812935170668,0.0
1888,-0.1456583684432666,0.0
1889,0.015840546137788493,0.0
1890,-0.13979595499927272,0.0
1891,0.039066952034273794,0.0
1892,-0.02950352428191129,0.0
1893,0.015075926523251761,0.0
1894,0.004169293448224875,0.0
1895,-0.008602745765226665,0.0
1896,-0.07540115673953521,0.0
1897,-0.0304806716414222,0.0
1898,0.015454000610296198,0.0
1899,-0.0953854034814484,0.0
1900,0.3855301573766001,0.0
1901,5.058144450231641,0.0
1902,4.196571206967794,0.0
1903,-2.885135430526264,0.0
1904,1.5646372700410107,0.0
1905,-0.7828472039642912,0.0
1906,0.3440817708278723,0.0
1907,-0.13179407352422728,0.0
1908,0.01994664720324118,0.0
1909,-0.013687439235339143,0.0
1910,0.014395287675252076,0.0
1911,0.018338509254625483,0.0
1912,-0.035272604342198394,0.0
1913,-0.032491435135117444,0.0
1914,0.0032204336555559827,0.0
1915,0.033003158383917264,0.0
1916,0.029913773996270966,0.0
1917,1.3358676794959436,0.0
1918,6.831605996639471,0.0
1919,0.6259215236148968,0.0
1920,-1.4220682973312972,0.0
1921,1.1055950091159201,0.0
1922,-0.47643029725310176,0.0
1923,0.24933693251616276,0.0
1924,-0.04786286507511457,0.0
1925,0.028627416841858846,0.0
1926,-0.02842056247364335,0.0
1927,-0.019560499347519807,0.0
1928,0.015215184070804829,0.0
1929,0.015797185610191652,0.0
1930,0.043341252168628205,0.0
1931,-0.05721443383720826,0.0
1932,-0.017574348528744125,0.0
1933,0.09025845287458248,0.0
1934,3.0150450438203205,0.0
1935,6.721537696147633,0.0
1936,-2.36107373194123,0.0
1937,0.6744000680895117,0.0
1938,-0.14942924471302027,0.0
1939,0.09168079601536927,0.0
1940,0.06853696834516992,0.0
1941,0.023199454880103876,0.0
1942,0.030636385947952798,0.0
1943,-0.043638500883921766,0.0
1944,0.039783239494518265,0.0
1945,-0.001310425880480511,0.0
1946,0.01650642607935229,0.0
1947,-0.08470222865546753,0.0
1948,0.010221434412386042,0.0
1949,-0.0006246213463505764,0.0
1950,0.3730609246247982,0.0
1951,5.086850253435125,0.0
1952,4.180876805466063,0.0
1953,-2.912357604300688,0.0
1954,1.6515822460464755,0.0
1955,-0.788960402606568,0.0
1956,0.257774937764307,0.0
1957,-0.16453592287501145,0.0
1958,0.12296242948507088,0.0
1959,0.006236720873043817,0.0
1960,-0.041647792139632094,0.0
1961,0.02258704938062036,0.0
1962,-0.09466211384280251,0.0
1963,-0.022911031083188912,0.0
1964,-0.044454759061156236,0.0
1965,0.030138976792577786,0.0
1966,-0.033351943148259316,0.0
1967,1.1866779375460608,0.0
1968,6.662264727060681,0.0
1969,0.37753631398768256,0.0
1970,-1.535865528122235,0.0
1971,0.8690119758897411,0.0
1972,-0.6166261225231954,0.0
1973,0.11445178417039385,0.0
1974,-0.2316863834669284,0.0
1975,-0.04844213807726764,0.0
1976,-0.07642907102807969,0.0
1977,-0.026754614172529577,0.0
1978,0.035956825052502854,0.0
1979,-0.01462776304428795,0.0
1980,-0.010234784809520022,0.0
1981,0.13054645012313532,0.0
1982,0.012090419567577976,0.0
1983,-0.004791551307343295,0.0
1984,3.071610622988722,0.0
1985,6.660839152610111,0.0
1986,-2.3477927311603137,0.0
1987,0.865464063600158,0.0
1988,-0.11720047531420155,0.0
1989,0.16182415916464216,0.0
1990,0.07534344297782171,0.0
1991,0.035739827009211585,0.0
1992,-0.011956483202173442,0.0
1993,0.09367544288263487,0.0
1994,0.0603063193532844,0.0
1995,-0.037166206478209306,0.0
1996,0.10132192045494286,0.0
1997,0.11469175123594777,0.0
1998,-0.03738273589997111,0.0
1999,-0.00019164356294169588,0.0
2000,0.3072763208841081,0.0
2001,5.130138973031287,0.0
2002,4.265211806561306,0.0
2003,-2.947291863383269,0.0
2004,1.5448794597894813,0.0
2005,-0.6973728595355527,0.0
2006,0.2747322714880183,0.0
2007,-0.17201194594353114,0.0
2008,-0.012206439746902976,0.0
2009,-0.10529258921513907,0.0
2010,0.019264593517139248,0.0
2011,0.009610339440779936,0.0
2012,0.06443964886675888,0.0
2013,0.07256097331702295,0.0
2014,0.04538925700141956,0.0
2015,0.03212366662728633,0.0
2016,0.09549976555181186,0.0
2017,1.417799157080002,0.0
2018,6.725548490093607,0.0
2019,0.5756055602248634,0.0
2020,-1.3787128762250151,0.0
2021,0.9659295279262576,0.0
2022,-0.5140098625625745,0.0
2023,0.21902864575351083,0.0
2024,-0.09524681744908206,0.0
2025,0.03627533990884203,0.0
2026,-0.05495472145714153,0.0
2027,0.03774566218007561,0.0
2028,0.014065854875334044,0.0
2029,0.07971930360335847,0.0
2030,0.0327186261574416,0.0
2031,-0.03124948241562147,0.0
2032,0.08294761926169517,0.0
2033,0.03139497442934157,0.0
2034,3.0150989535855657,0.0
2035,6.639567724232566,0.0
2036,-2.35142755012596,0.0
2037,0.8143957018532684,0.0
2038,-0.14036586515253477,0.0
2039,0.1517231912032814,0.0
2040,-0.0842741045587043,0.0
2041,0.04582304513398772,0.0
2042,-0.025269897424390685,0.0
2043,0.024248647360692863,0.0
2044,0.01936066539392863,0.0
2045,0.11749328377619572,0.0
2046,0.00704692625636113,0.0
2047,-0.044912950133375734,0.0
2048,0.06326996063452398,0.0
2049,0.025437738610223855,0.0
2050,0.42708016533840826,0.0
2051,5.165779135674707,0.0
2052,4.173723412236636,0.0
2053,-2.8144873479756525,0.0
2054,1.6608556746055059,0.0
2055,-0.6691161145035711,0.0
2056,0.21735178184968318,0.0
2057,-0.13799618418840923,0.0
2058,0.014770077401486625,0.0
2059,-0.01486226889520087,0.0
2060,-0.03268049729743816,0.0
2061,0.0183139341136725,0.0
2062,0.008976961647339923,0.0
2063,0.021059337396010812,0.0
2064,-0.10815925408664559,0.0
2065,0.006191620271533069,0.0
2066,0.04204304907578815,0.0
2067,1.2622263616274316,0.0
2068,6.788582134503063,0.0
2069,0.6275290178227706,0.0
2070,-1.4166044607259087,0.0
2071,0.9910281404828606,0.0
2072,-0.46274038501565895,0.0
2073,0.254930177691488,0.0
2074,-0.06313108445448615,0.0
2075,0.08596750704355308,0.0
2076,-0.00032187156432880726,0.0
2077,0.014386156892958479,0.0
2078,0.2096141642589785,0.0
2079,0.072816175643839,0.0
2080,0.0381422182987142,0.0
2081,-0.09867858143964768,0.0
2082,-0.057167198222047605,0.0
2083,0.04171604608858193,0.0
2084,3.0347663835258842,0.0
2085,6.490852657466377,0.0
2086,-2.4115052109958968,0.0
2087,0.7223520509124822,0.0
2088,-0.1960934613040296,0.0
2089,-0.06593886716037883,0.0
2090,-0.04707422824167385,0.0
2091,0.03039528845840135,0.0
2092,-0.09280732744271318,0.0
2093,-0.026021851803441395,0.0
2094,0.019850914537311814,0.0
2095,0.0169102996877596,0.0
2096,-0.07584848233451918,0.0
2097,0.034786389300738255,0.0
2098,-0.02466511912238037,0.0
2099,-0.1060276578722099,0.0
2100,0.39097098490187365,0.0
2101,5.16809104798681,0.0
2102,4.126063217897053,0.0
2103,-2.957706774192445,0.0
2104,1.6953740817451786,0.0
2105,-0.7219240373171315,0.0
2106,0.3823366029250314,0.0
2107,-0.1458671677544956,0.0
2108,0.08126118674968631,0.0
2109,0.029013047974665675,0.0
2110,-0.06456784943792496,0.0
2111,0.046490969177085,0.0
2112,-0.09736099612707136,0.0
2113,-0.06681493491236219,0.0
2114,-0.026296460932471455,0.0
2115,-0.016705279887252747,0.0
2116,-0.018221455128652864,0.0
2117,1.3205849299350993,0.0
2118,6.734025895187703,0.0
2119,0.5462842237336094,0.0
2120,-1.4495279755099961,0.0
2121,0.9728761864323588,0.0
2122,-0.58319922079364,0.0
2123,0.15796414494604005,0.0
2124,-0.1815388883493476,0.0
2125,-0.03770433780434,0.0
2126,0.01860604165445702,0.0
2127,-0.0957628378755539,0.0
2128,-0.03811183344541651,0.0
2129,-0.13386610988415334,0.0
2130,-0.09368646019493682,0.0
2131,-0.055710561045303295,0.0
2132,-0.140110030306907,0.0
2133,-0.0399424985007972,0.0
2134,2.996007305153384,0.0
2135,6.5108972696205205,0.0
2136,-2.5545115683816593,0.0
2137,0.6055175120303223,0.0
2138,-0.2032474103383463,0.0
2139,-0.045569963693111754,0.0
2140,-0.05813359265907843,0.0
2141,-0.055779153641621,0.0
2142,0.002228110237836367,0.0
2143,-0.14540866555122572,0.0
2144,-0.02074232178231647,0.0
2145,0.006802980758409613,0.0
2146,-0.08058255126751848,0.0
2147,0.059729767197287044,0.0
2148,-0.02507985080263955,0.0
2149,-0.01780821090084706,0.0
2150,0.3081755645118033,0.0
2151,5.104812096240781,0.0
2152,4.0714359952572465,0.0
2153,-2.9065193623594037,0.0
2154,1.5555007185718275,0.0
2155,-0.8308584381983298,0.0
2156,0.26542038508990445,0.0
2157,-0.19170571680643286,0.0
2158,-0.037810938494346684,0.0
2159,-0.13939076192492394,0.0
2160,0.00276028025458111,0.0
2161,-0.002440065724539059,0.0
2162,0.0011605357470036576,0.0
2163,-0.09064148447095802,0.0
2164,-0.12376330780954461,0.0
2165,-0.08523234933227081,0.0
2166,-0.08592643159778462,0.0
2167,1.290067347851103,0.0
2168,6.713847127043273,0.0
2169,0.48851994575719676,0.0
2170,-1.3472987728211676,0.0
2171,0.9170768946976599,0.0
2172,-0.6235803262639056,0.0
2173,0.19522339244950782,0.0
2174,-0.12116124550718486,0.0
2175,-0.031244935884760197,0.0
2176,-0.0054976984770032725,0.0
2177,-0.011258829595022467,0.0
2178,-0.09529580467397714,0.0
2179,-0.04900804861746185,0.0
2180,-0.07038393176030405,0.0
2181,-0.1137872811620112,0.0
2182,-0.07051157926822754,0.0
2183,0.06791967098837264,0.0
2184,2.9703094711752316,0.0
2185,6.531999352009526,0.0
2186,-2.5356237092199305,0.0
2187,0.6279832657806221,0.0
2188,-0.2505688233634049,0.0
2189,-0.08273468169774957,0.0
2190,-0.11955465870512932,0.0
2191,-0.14366005181075242,0.0
2192,-0.10636002778145805,0.0
2193,-0.10719287061987323,0.0
2194,-0.06131925331652807,0.0
2195,-0.1344727005143513,0.0
2196,-0.07717890204313979,0.0
2197,-0.03235976275562076,0.0
2198,-0.0010251787375147176,0.0
2199,-0.06507996436342145,0.0
2200,0.3564298663216295,0.0
2201,5.075345599684585,0.0
2202,4.089087760135591,0.0
2203,-2.916108110600012,0.0
2204,1.4775102460801774,0.0
2205,-0.8229952078841202,0.0
2206,0.27182906214931124,0.0
2207,-0.19001087952706758,0.0
2208,-0.02807438726103851,0.0
2209,-0.03326747237652144,0.0
2210,-0.0570883616016269,0.0
2211,-0.04505391168492042,0.0
2212,-0.09391392794206978,0.0
2213,-0.04278660781851718,0.0
2214,-0.07400834374786205,0.0
2215,-0.20744127308680355,0.0
2216,-0.10513767537567933,0.0
2217,1.2288102898714695,0.0
2218,6.623263687796416,0.0
2219,0.42130272043827593,0.0
2220,-1.4742555147517284,0.0
2221,0.8857459545031646,0.0
2222,-0.6073275869437637,0.0
2223,0.11515408108018957,0.0
2224,-0.24567327512589238,0.0
2225,-0.05224230535464539,0.0
2226,-0.08602395066318358,0.0
2227,-0.07827088227397686,0.0
2228,-0.054509123182940586,0.0
2229,-0.11333945949218484,0.0
2230,-0.04419305307586907,0.0
2231,-0.08892172746211116,0.0
2232,-0.167405382225009,0.0
2233,-0.00924805955618628,0.0
2234,3.0158904167089062,0.0
2235,6.492858879258004,0.0
2236,-2.447388510579659,0.0
2237,0.6387711530307103,0.0
2238,-0.21498901941402246,0.0
2239,-0.015628100958038675,0.0
2240,-0.18211390107744033,0.0
2241,-0.2051446819032012,0.0
2242,-0.22373690863046852,0.0
2243,-0.07585576631287706,0.0
2244,-0.030839083455926924,0.0
2245,-0.1383722749687501,0.0
2246,-0.1150796629941725,0.0
2247,-0.17088084403350826,0.0
2248,-0.1902426609205794,0.0
2249,-0.09018286228642422,0.0
2250,0.2757827012846253,0.0
2251,5.064425742951267,0.0
2252,4.066658452393141,0.0
2253,-2.939847948412253,0.0
2254,1.48545584920637,0.0
2255,-0.7705398721460794,0.0
2256,0.3510889757100216,0.0
2257,-0.2612857765436461,0.0
2258,-0.10630567572563474,0.0
2259,-0.09407324091901159,0.0
2260,-0.028325578888374947,0.0
2261,-0.08726551604203354,0.0
2262,-0.1868077717618018,0.0
2263,-0.11967336825871783,0.0
2264,-0.18979380654544842,0.0
2265,-0.13219720074142843,0.0
2266,-0.13921373951909122,0.0
2267,1.2717709481019488,0.0
2268,6.776675475477611,0.0
2269,0.38595020849514416,0.0
2270,-1.4989445057192852,0.0
2271,0.8155379586497397,0.0
2272,-0.6531336549085198,0.0
2273,0.1549871522603347,0.0
2274,-0.0674210107725961,0.0
2275,-0.15268823033166984,0.0
2276,-0.08063358271478896,0.0
2277,-0.04924310549466243,0.0
2278,-0.07542269890857367,0.0
2279,0.037285225576476656,0.0
2280,0.011374072031743628,0.0
2281,0.08736093337854878,0.0
2282,-0.008613300917760715,0.0
2283,0.008308253922758878,0.0
2284,3.0826654140264473,0.0
2285,6.535486969799585,0.0
2286,-2.4133076543837237,0.0
2287,0.6738233850872463,0.0
2288,-0.1869832422225093,0.0
2289,0.00889538458216527,0.0
2290,-0.048466543250825035,0.0
2291,-0.023332553718402822,0.0
2292,-0.008935836050271082,0.0
2293,-0.14226857625259992,0.0
2294,-0.1539859800221725,0.0
2295,-0.1170345129494601,0.0
2296,-0.10378207198856404,0.0
2297,-0.0028970546427731364,0.0
2298,-0.08927294703918288,0.0
2299,-0.15792636209158722,0.0
2300,0.31290537037648597,0.0
2301,5.0721795385638675,0.0
2302,3.949198609956269,0.0
2303,-3.0082657253481,0.0
2304,1.479835057715813,0.0
2305,-0.86653398921386,0.0
2306,0.2167031363472596,0.0
2307,-0.22977306533909125,0.0
2308,-0.05493842977315901,0.0
2309,-0.11309671824292097,0.0
2310,-0.14488858675234792,0.0
2311,-0.07505980980937914,0.0
2312,-0.08022712666770637,0.0
2313,0.0390928509623945,0.0
2314,0.06483319138007299,0.0
2315,-0.05191534212369232,0.0
2316,-0.08409592753495658,0.0
2317,1.2761954908600492,0.0
2318,6.737092020708893,0.0
2319,0.40042230222526093,0.0
2320,-1.4330541106497732,0.0
2321,0.9033500096416847,0.0
2322,-0.6182747842164513,0.0
2323,0.19099124788078167,0.0
2324,-0.07438920761674302,0.0
2325,-0.0671954580349631,0.0
2326,-0.16919096473216932,0.0
2327,-0.001336931982086939,0.0
2328,-0.032975395271323094,0.0
2329,-0.14225507597839687,0.0
2330,-0.053610004241004545,0.0
2331,-0.09856026105239504,0.0
2332,-0.08543465461795445,0.0
2333,-0.05762665548360205,0.0
2334,3.1270841082820775,0.0
2335,6.463341772414831,0.0
2336,-2.4628772123651825,0.0
2337,0.7729534617353773,0.0
2338,-0.21852731792001331,0.0
2339,-0.033247763998879784,0.0
2340,-0.13860984414140048,0.0
2341,0.013039279022445054,0.0
2342,0.030865007588530023,0.0
2343,0.03562634346421956,0.0
2344,-0.024694495434423376,0.0
2345,0.038891860704625116,0.0
2346,-0.08063846763944091,0.0
2347,-0.012212456384927144,0.0
2348,-0.03235296001320337,0.0
2349,-0.027478105253078214,0.0
2350,0.28729272842909,0.0
2351,5.240519005836817,0.0
2352,4.03839596043075,0.0
2353,-2.9679699061003735,0.0
2354,1.5287047455694933,0.0
2355,-0.8220243975933316,0.0
2356,0.2925794646581792,0.0
2357,-0.08144825216535187,0.0
2358,0.06547101194558078,0.0
2359,-0.021085671221355014,0.0
2360,0.03441209324544528,0.0
2361,-0.027139793308342368,0.0
2362,-0.0075665362000311535,0.0
2363,0.031127940547955535,0.0
2364,-0.027704650376167844,0.0
2365,-0.03803829467773459,0.0
2366,0.0448551742646419,0.0
2367,1.3946625728053879,0.0
2368,6.786733353604534,0.0
2369,0.4534936592259149,0.0
2370,-1.3059775656308128,0.0
2371,0.9831419284115934,0.0
2372,-0.45537647736608594,0.0
2373,0.2185916392602078,0.0
2374,-0.05004441987826766,0.0
2375,0.0321446142617737,0.0
2376,-0.1530232687291854,0.0
2377,0.0019733321753697478,0.0
2378,0.01710853360242523,0.0
2379,-0.08401936059628082,0.0
2380,-0.05024705607501807,0.0
2381,-0.1429717905413155,0.0
2382,-0.05550747400041402,0.0
2383,-0.02215158859447871,0.0
2384,3.0682801181833765,0.0
2385,6.459636836766301,0.0
2386,-2.5309786234191907,0.0
2387,0.724997132444248,0.0
2388,-0.2152185050259084,0.0
2389,0.034874220864230074,0.0
2390,-0.07653868791210186,0.0
2391,-0.07889956323710344,0.0
2392,0.058948595579552246,0.0
2393,-0.009519603645691634,0.0
2394,0.03254234751256904,0.0
2395,-0.00815282105265577,0.0
2396,0.09218815438375023,0.0
2397,0.10630546710580466,0.0
2398,0.037454656989203354,0.0
2399,0.019233121008889777,0.0
2400,0.5340553928593753,0.0
2401,5.252381840879399,0.0
2402,4.121197094227513,0.0
2403,-2.8791957937120367,0.0
2404,1.6550868991415693,0.0
2405,-0.6628699983671267,0.0
2406,0.38884139006216883,0.0
2407,-0.05599255636227826,0.0
2408,0.07864369789458697,0.0
2409,0.012769733520061796,0.0
2410,0.10592995401602721,0.0
2411,-0.05127156786569917,0.0
2412,0.09207147826252857,0.0
2413,-0.03565669229791159,0.0
2414,0.07735731193142542,0.0
2415,0.06755959599064212,0.0
2416,0.06298952488890536,0.0
2417,1.4643337888916341,0.0
2418,6.826185717476474,0.0
2419,0.4057154375372711,0.0
2420,-1.20654458400109,0.0
2421,0.9957624577787195,0.0
2422,-0.49146388190922147,0.0
2423,0.30685012989345706,0.0
2424,-0.06875442299467212,0.0
2425,-0.0043542674692610694,0.0
2426,0.05186510403313771,0.0
2427,0.010749881704358668,0.0
2428,0.0742782650321766,0.0
2429,-0.05549920739935505,0.0
2430,-0.07268558324201721,0.0
2431,0.019212354303803282,0.0
2432,-0.026493894842686445,0.0
2433,0.07777981144067829,0.0
2434,2.9892384504962406,0.0
2435,6.59326482030023,0.0
2436,-2.3916986544994856,0.0
2437,0.9050408819598146,0.0
2438,-0.13455591297970468,0.0
2439,0.060094236269644156,0.0
2440,-0.026646477881705724,0.0
2441,0.06732428346807826,0.0
2442,-0.020140057908367343,0.0
2443,0.06355535661319026,0.0
2444,0.07169889932838144,0.0
2445,0.06116167719639996,0.0
2446,0.03146792642488745,0.0
2447,0.0853084112106568,0.0
2448,-0.07026547677146237,0.0
2449,-0.017516560703697136,0.0
2450,0.4228556788162945,0.0
2451,5.242090927818991,0.0
2452,3.908411568070416,0.0
2453,-2.7629270801373016,0.0
2454,1.4796274134889322,0.0
2455,-0.7791218318428088,0.0
2456,0.32889734711458873,0.0
2457,-0.099896825732181,0.0
2458,0.01574651322123788,0.0
2459,0.04879329554224375,0.0
2460,0.05407515569022345,0.0
2461,-0.05060430074157515,0.0
2462,-0.017073477037648412,0.0
2463,0.11576957817543,0.0
2464,0.006827879216809711,0.0
2465,0.0011716019135830646,0.0
2466,0.003374127614920016,0.0
2467,1.406008279630932,0.0
2468,6.806356584913206,0.0
2469,0.3806458422928173,0.0
2470,-1.2739133014243729,0.0
2471,1.029313699712746,0.0
2472,-0.46089783018962854,0.0
2473,0.16105670700322403,0.0
2474,-0.12536144196128352,0.0
2475,-0.029440305927674226,0.0
2476,0.016264139575694628,0.0
2477,0.03294228647669063,0.0
2478,0.0021920677638921004,0.0
2479,-0.041338370172289494,0.0
2480,-0.014412986092583884,0.0
2481,0.03852934579137103,0.0
2482,-0.022924312324319553,0.0
2483,-0.021735122504484936,0.0
2484,3.188607787546543,0.0
2485,6.5235932871305655,0.0
2486,-2.3386263551224724,0.0
2487,0.8062993046399359,0.0
2488,-0.21559153794502908,0.0
2489,0.1171685388571172,0.0
2490,-0.006069525763496699,0.0
2491,0.09683397313187989,0.0
2492,-0.003280156487505251,0.0
2493,-0.0047321830217235995,0.0
2494,0.07686489596448226,0.0
2495,0.04278379252364005,0.0
2496,-0.002369519102735843,0.0
2497,-0.07391403699613272,0.0
2498,0.01311845058044495,0.0
2499,-0.034944617946284444,0.0
2500,0.3957433067425033,0.0
2501,5.2776202069868905,0.0
2502,3.966886925251848,0.0
2503,-2.941751066477992,0.0
2504,1.5128667328668393,0.0
2505,-0.7540829811407505,0.0
2506,0.3115741175878366,0.0
2507,-0.1316224529266915,0.0
2508,0.07393354345810577,0.0
2509,0.003459652756074169,0.0
2510,-0.07645062220016363,0.0
2511,0.060950947133267624,0.0
2512,-0.0533722239030849,0.0
2513,0.015855094221666047,0.0
2514,0.003397162389928536,0.0
2515,-0.012121818286019048,0.0
2516,-0.0051492793043630275,0.0
2517,1.3340297386903879,0.0
2518,6.758437338186944,0.0
2519,0.2963785717949807,0.0
2520,-1.3172843705264494,0.0
2521,0.928603143397142,0.0
2522,-0.5957714134682546,0.0
2523,0.09131648119855544,0.0
2524,-0.045497534969358266,0.0
2525,-0.047281185600014555,0.0
2526,0.02007040592156001,0.0
2527,-0.030307228013769713,0.0
2528,0.09923146611316781,0.0
2529,-0.09469915302457466,0.0
2530,0.017941316821578866,0.0
2531,0.0492344176867145,0.0
2532,0.10023305732712719,0.0
2533,0.1517280263398177,0.0
2534,3.2230462991264166,0.0
2535,6.455773613618021,0.0
2536,-2.4865296210913734,0.0
2537,0.8352013269849039,0.0
2538,-0.2125689538943015,0.0
2539,0.037619859725171026,0.0
2540,0.01737712755751132,0.0
2541,-3.420508502746146e-05,0.0
2542,-0.07407965906196838,0.0
2543,-0.030517308332088593,0.0
2544,-0.054508355792469126,0.0
2545,-0.004273707964426112,0.0
2546,-0.0106705258505965,0.0
2547,-0.026581076870549884,0.0
2548,0.019382394927607065,0.0
2549,-0.07388094732302519,0.0
2550,0.5336643563408479,0.0
2551,5.231237667540896,0.0
2552,3.9695328536796106,0.0
2553,-2.862002148107999,0.0
2554,1.6309443504366834,0.0
2555,-0.7252716902203823,0.0
2556,0.3769957899730401,0.0
2557,-0.08744778972713427,0.0
2558,0.03663149529291677,0.0
2559,-0.08787742973791635,0.0
2560,0.005724078749804445,0.0
2561,-0.033615052826209205,0.0
2562,-0.06924632980693544,0.0
2563,0.04387403889974499,0.0
2564,-0.043747063104125156,0.0
2565,0.06277114819884619,0.0
2566,-0.027532293983252153,0.0
2567,1.3253735105221678,0.0
2568,6.792042071782409,0.0
2569,0.3017041530232977,0.0
2570,-1.3022724014404283,0.0
2571,0.8968586950026733,0.0
2572,-0.6061643136088194,0.0
2573,0.18431160306740435,0.0
2574,-0.14972788960019925,0.0
2575,0.08582236094600755,0.0
2576,0.0006606240478967372,0.0
2577,0.002595473506466531,0.0
2578,0.06950515680164256,0.0
2579,0.03624870205078336,0.0
2580,0.07267477634384156,0.0
2581,-0.022795785263227057,0.0
2582,0.11108521225992797,0.0
2583,0.07891520621736679,0.0
2584,3.209467460414756,0.0
2585,6.591185251187055,0.0
2586,-2.4253694379618493,0.0
2587,0.9136468307368903,0.0
2588,-0.1268539033089728,0.0
2589,0.044385499621662106,0.0
2590,-0.027583231418826695,0.0
2591,0.04810244570637134,0.0
2592,-0.015203516282332625,0.0
2593,0.07156428433433237,0.0
2594,0.01316862172815809,0.0
2595,-0.036753487570890274,0.0
2596,0.030468534950204747,0.0
2597,0.07899401570683977,0.0
2598,0.08872062110070174,0.0
2599,0.02184270220376162,0.0
2600,0.436652760239443,0.0
2601,5.316932460277881,0.0
2602,3.747441745557645,0.0
2603,-2.897876349519628,0.0
2604,1.596324398268066,0.0
2605,-0.7186525490871578,0.0
2606,0.2525148393574619,0.0
2607,-0.11645256757771133,0.0
2608,-0.07185056145600655,0.0
2609,-0.0438771464205894,0.0
2610,-0.0015767031172243158,0.0
2611,-0.031798267181218136,0.0
2612,0.01397315167982427,0.0
2613,0.004042668858639388,0.0
2614,-0.0013950728583008113,0.0
2615,-0.05215698737866163,0.0
2616,-0.018408947827611453,0.0
2617,1.347284148837461,0.0
2618,6.788997900653252,0.0
2619,0.23311235898936283,0.0
2620,-1.2347595629177732,0.0
2621,0.9717331488079135,0.0
2622,-0.3807641262317226,0.0
2623,0.176411176766197,0.0
2624,-0.14511834745906255,0.0
2625,-0.03870708666509883,0.0
2626,-0.10578289842335256,0.0
2627,-0.02737099479705516,0.0
2628,-0.026045093277154506,0.0
2629,-0.028212403028613588,0.0
2630,-0.13475131235876278,0.0
2631,0.0738230801074347,0.0
2632,-0.043180265543010465,0.0
2633,0.11382249517482705,0.0
2634,3.1272768620009264,0.0
2635,6.409814306758217,0.0
2636,-2.5366276395408387,0.0
2637,0.7499277929816914,0.0
2638,-0.33165481787646744,0.0
2639,0.015792596155838133,0.0
2640,-0.15486259318174067,0.0
2641,-0.10228462377434491,0.0
2642,-0.0398109124612073,0.0
2643,-0.06726077926568343,0.0
2644,-0.11427831119936935,0.0
2645,-0.013809908333791386,0.0
2646,-0.08368339071782974,0.0
2647,0.0030826221450345956,0.0
2648,0.021431685415016694,0.0
2649,-0.07861542702761384,0.0
2650,0.4231407909702492,0.0
2651,5.268257017388123,0.0
2652,3.769035053866363,0.0
2653,-2.911777018325356,0.0
2654,1.460172149675567,0.0
2655,-0.8589141883585638,0.0
2656,0.3129608579261768,0.0
2657,-0.09073508302299813,0.0
2658,-0.0016832872569407624,0.0
2659,-0.09327693080385571,0.0
2660,0.03766028080498526,0.0
2661,-0.04218655991332004,0.0
2662,0.016038355332849176,0.0
2663,0.028748415258616294,0.0
2664,0.05990637128642625,0.0
2665,-0.030169419910836878,0.0
2666,-0.05578092998932799,0.0
2667,1.4632307436603462,0.0
2668,6.810696273722132,0.0
2669,0.29526534737319865,0.0
2670,-1.2898544736731998,0.0
2671,0.9081282491540924,0.0
2672,-0.4354866783637519,0.0
2673,0.14484819042523384,0.0
2674,-0.07938604990149874,0.0
2675,0.054298710429556744,0.0
2676,-0.0681624670180066,0.0
2677,-0.059505331662623326,0.0
2678,-0.003229082351631704,0.0
2679,-0.010187806872327836,0.0
2680,-0.01788131440719555,0.0
2681,-0.09611598382145545,0.0
2682,-0.03831337198466364,0.0
2683,0.08094679071016767,0.0
2684,3.181301645612906,0.0
2685,6.40297150492944,0.0
2686,-2.554239066138842,0.0
2687,0.7324343716678539,0.0
2688,-0.36687087211286135,0.0
2689,0.008691441861301689,0.0
2690,-0.18274809613580556,0.0
2691,-0.04586019680319901,0.0
2692,-0.0936825935275099,0.0
2693,-0.08459243957144384,0.0
2694,0.02971990949561165,0.0
2695,-0.0329926713159246,0.0
2696,-0.04370174929523486,0.0
2697,-0.037230386687515965,0.0
2698,-0.037440191452223645,0.0
2699,0.014926745593061671,0.0
2700,0.48286991430772047,0.0
2701,5.303839722826538,0.0
2702,3.8123478314106047,0.0
2703,-2.8889992438241943,0.0
2704,1.5759923768076043,0.0
2705,-0.7882102893432558,0.0
2706,0.27094860259465436,0.0
2707,-0.1365000269581976,0.0
2708,0.02016740334971344,0.0
2709,-0.0015763394827052052,0.0
2710,0.01739018084201422,0.0
2711,-0.021052335908077972,0.0
2712,-0.06178209132679027,0.0
2713,-0.03221924353398087,0.0
2714,-0.03148293704750879,0.0
2715,-0.07058565281678895,0.0
2716,-0.04777228672234532,0.0
2717,1.3751089241541186,0.0
2718,6.833224310408336,0.0
2719,0.3233611162186196,0.0
2720,-1.1922055953675639,0.0
2721,0.7978406058257385,0.0
2722,-0.4391449019597766,0.0
2723,0.1129293775580747,0.0
2724,-0.06884218903548461,0.0
2725,0.030658870911756946,0.0
2726,-0.06787506939981915,0.0
2727,-0.020896295981242433,0.0
2728,-0.05611367017679331,0.0
2729,-0.09870940996763561,0.0
2730,-0.00010922960417911534,0.0
2731,-0.09616276563504658,0.0
2732,0.07203227879701782,0.0
2733,0.013261167979587894,0.0
2734,3.179457251299226,0.0
2735,6.39654922715127,0.0
2736,-2.5449204553851943,0.0
2737,0.922076341559188,0.0
2738,-0.1741199395729824,0.0
2739,0.06277107058325107,0.0
2740,-0.10316170291601345,0.0
2741,0.04090521895170299,0.0
2742,-0.04788315932300813,0.0
2743,0.006434245265790239,0.0
2744,-0.027993944638361155,0.0
2745,0.06343878713327258,0.0
2746,-0.0009988708984601472,0.0
2747,-0.05659767148761444,0.0
2748,-0.029279549791581424,0.0
2749,-0.089513862756116,0.0
2750,0.49717332098953315,0.0
2751,5.399515276745914,0.0
2752,3.7874048331682997,0.0
2753,-2.811736926301156,0.0
2754,1.4939644810924537,0.0
2755,-0.7666790475757322,0.0
2756,0.33730197442873633,0.0
2757,-0.1382786908586607,0.0
2758,0.005641924608522503,0.0
2759,-0.05313474972223429,0.0
2760,-0.049890474966868485,0.0
2761,-0.011151237182682575,0.0
2762,-0.030257231590906902,0.0
2763,0.011090770793177619,0.0
2764,-0.038696586737307054,0.0
2765,0.06558317354354119,0.0
2766,0.03328762906915227,0.0
2767,1.3112970426438044,0.0
2768,6.8014136894104755,0.0
2769,0.16114302736405964,0.0
2770,-1.2158276419166931,0.0
2771,0.8874273412684657,0.0
2772,-0.5203911350160083,0.0
2773,0.13198660780895632,0.0
2774,-0.16626831640413814,0.0
2775,0.0020905034864148915,0.0
2776,-0.09764721381115468,0.0
2777,0.04769257948159,0.0
2778,-0.06543720843435857,0.0
2779,-0.02301099145597817,0.0
2780,0.031004192270919075,0.0
2781,0.052266264069589286,0.0
2782,0.01733735085232551,0.0
2783,0.13267856857811097,0.0
2784,3.1796207709251165,0.0
2785,6.338841903679801,0.0
2786,-2.516918646598981,0.0
2787,0.8051596746166918,0.0
2788,-0.08560948752146891,0.0
2789,0.012876584919153403,0.0
2790,6.038118421140132e-05,0.0
2791,0.0605466272381137,0.0
2792,0.05199146704877927,0.0
2793,0.018016712480583008,0.0
2794,0.09825332118976407,0.0
2795,-0.02748957054472977,0.0
2796,0.016860871417539208,0.0
2797,-0.10071495641663697,0.0
2798,-0.049706758190233735,0.0
2799,0.08304681351507819,0.0
2800,0.41477516058303004,0.0
2801,5.2069316350610055,0.0
2802,3.7988210456608615,0.0
2803,-2.824992756738965,0.0
2804,1.5455280694056173,0.0
2805,-0.9090160534937579,0.0
2806,0.2527751550144747,0.0
2807,-0.12281776858825645,0.0
2808,-0.037875511752270635,0.0
2809,-0.12246128532097827,0.0
2810,-0.08876425659755766,0.0
2811,0.02978720409556134,0.0
2812,-0.06130182514215667,0.0
2813,0.09051801015457599,0.0
2814,0.011587922921184202,0.0
2815,-0.02594869330081504,0.0
2816,0.113348047449866,0.0
2817,1.4832815368442147,0.0
2818,6.8962213723431685,0.0
2819,0.2656895909559527,0.0
2820,-1.1999749901690124,0.0
2821,0.937280116222768,0.0
2822,-0.4927981156735429,0.0
2823,0.19720466251738195,0.0
2824,0.004607264340625,0.0
2825,0.037730781575183905,0.0
2826,-0.07117225175848559,0.0
2827,0.03322569143826914,0.0
2828,0.04595065983052407,0.0
2829,0.06575342090738177,0.0
2830,0.009979271573830497,0.0
2831,-0.0336171473856694,0.0
2832,0.037159455247720796,0.0
2833,0.12420743279675091,0.0
2834,3.290648562270729,0.0
2835,6.462219211430563,0.0
2836,-2.5465514087607732,0.0
2837,0.9366523131180571,0.0
2838,-0.18739181204677777,0.0
2839,0.17785144040444112,0.0
2840,0.02406626380962872,0.0
2841,0.16605743476299786,0.0
2842,0.013797387925506117,0.0
2843,0.024120340867521108,0.0
2844,0.06919259996120028,0.0
2845,0.06387225881198838,0.0
2846,-0.03664106591137149,0.0
2847,0.08512047234680747,0.0
2848,0.11245597982366026,0.0
2849,-0.007062203194451763,0.0
2850,0.4793322397527328,0.0
2851,5.456446407327233,0.0
2852,3.756214834703618,0.0
2853,-2.8458423394928456,0.0
2854,1.6444487997903685,0.0
2855,-0.721200443966729,0.0
2856,0.31393273261928006,0.0
2857,-0.01152442875753483,0.0
2858,0.04411207853410534,0.0
2859,-0.023270807565565325,0.0
2860,0.03964410874961511,0.0
2861,-0.01634513016491093,0.0
2862,-0.004868553341685303,0.0
2863,0.02664699270262662,0.0
2864,0.10724183379188786,0.0
2865,0.06853745445957224,0.0
2866,0.11948078283364555,0.0
2867,1.429140210888208,0.0
2868,6.874210730746228,0.0
2869,0.27479177116696907,0.0
2870,-1.138492144120142,0.0
2871,0.8736160252057108,0.0
2872,-0.39986893854735,0.0
2873,0.1874954286043542,0.0
2874,0.005207887447431718,0.0
2875,-0.0038434497341379853,0.0
2876,0.09481501544098353,0.0
2877,0.05353414475957416,0.0
2878,0.091481404361572,0.0
2879,0.049871771988624455,0.0
2880,0.22125675972891928,0.0
2881,0.041480230043616034,0.0
2882,0.10896506551337086,0.0
2883,0.13986597545411972,0.0
2884,3.3800989550110367,0.0
2885,6.622966565869542,0.0
2886,-2.5351163854338594,0.0
2887,0.9476793440282048,0.0
2888,-0.12314383270480997,0.0
2889,0.19711564499667028,0.0
2890,0.09881633408140683,0.0
2891,0.10159132789004843,0.0
2892,0.08448064032607674,0.0
2893,0.09259447994305,0.0
2894,0.08949685963704125,0.0
2895,0.0011457470931492061,0.0
2896,0.000974716972271368,0.0
2897,0.05400451062990011,0.0
2898,-0.027074347429242855,0.0
2899,-0.013732008623403999,0.0
2900,0.5515300677012155,0.0
2901,5.35549758436132,0.0
2902,3.842851814856362,0.0
2903,-2.905465634621504,0.0
2904,1.7010244660486724,0.0
2905,-0.7970767104383686,0.0
2906,0.32175138680582194,0.0
2907,-0.1746396704151186,0.0
2908,0.06156694448639107,0.0
2909,0.04308219534450769,0.0
2910,-0.011582548132388928,0.0
2911,0.0028844768255589645,0.0
2912,-0.08200678977685683,0.0
2913,-0.022579485464766964,0.0
2914,-0.013725523168994133,0.0
2915,-0.024634665894165998,0.0
2916,-0.02469653417272455,0.0
2917,1.5394337971712606,0.0
2918,6.86501915222208,0.0
2919,0.18199778142541376,0.0
2920,-1.2342686913441343,0.0
2921,0.9419208855827574,0.0
2922,-0.41401113663841216,0.0
2923,0.2844685134883079,0.0
2924,0.013383499801481173,0.0
2925,-0.04017180146916012,0.0
2926,0.09485533032844506,0.0
2927,-0.07671568388384659,0.0
2928,0.05524929540881858,0.0
2929,0.1258080885323565,0.0
2930,0.031775003679448174,0.0
2931,0.03252603475452767,0.0
2932,0.04393625238205209,0.0
2933,0.18009607367149089,0.0
2934,3.2273874099355466,0.0
2935,6.434241480374342,0.0
2936,-2.587532368832762,0.0
2937,0.9583076596308892,0.0
2938,-0.22218849580038186,0.0
2939,0.0415421977148189,0.0
2940,-0.11051026913665632,0.0
2941,-0.030721948053473905,0.0
2942,-0.06786854348735591,0.0
2943,-0.04499957482833592,0.0
2944,-0.008038305529313837,0.0
2945,0.01252412100752718,0.0
2946,0.02209455025649,0.0
2947,0.06037353602699315,0.0
2948,0.11076738926950755,0.0
2949,0.03798740506429999,0.0
2950,0.5124271717754707,0.0
2951,5.332023400035544,0.0
2952,3.7658082362568566,0.0
2953,-2.8052072848533025,0.0
2954,1.6839240891586873,0.0
2955,-0.8003425095222857,0.0
2956,0.38679848776013515,0.0
2957,-0.11551796409096124,0.0
2958,0.10153546482910031,0.0
2959,0.031795181681726174,0.0
2960,-0.0039375491481001,0.0
2961,-0.02126768800162811,0.0
2962,0.027574762069359604,0.0
2963,0.08435108074725603,0.0
2964,-0.019128590231538824,0.0
2965,0.03338198490247478,0.0
2966,-0.0021247055699293808,0.0
2967,1.4445760922710535,0.0
2968,6.907218275683367,0.0
2969,0.040000457481728036,0.0
2970,-1.1569829820882864,0.0
2971,0.8367313993165514,0.0
2972,-0.4822338523310441,0.0
2973,0.09073789426334049,0.0
2974,-0.07310440678695755,0.0
2975,-0.043775944507087765,0.0
2976,0.010604295694323092,0.0
2977,-0.03827071359327554,0.0
2978,0.018322561731732148,0.0
2979,-0.13016966344588438,0.0
2980,-0.021964498910074803,0.0
2981,-0.1405723995081315,0.0
2982,-0.03502395867926132,0.0
2983,-0.010826690387731694,0.0
2984,3.23110716341216,0.0
2985,6.386002736368022,0.0
2986,-2.6085927732930263,0.0
2987,0.9327574797901271,0.0
2988,-0.21765563380204242,0.0
2989,0.09501419514172038,0.0
2990,-0.03698893489769882,0.0
2991,-0.006610550596586506,0.0
2992,0.049088419136558106,0.0
2993,-0.025492120581994467,0.0
2994,0.02509626372684303,0.0
2995,0.011952488728896694,0.0
2996,-0.09114210295450095,0.0
2997,-0.004420533874368363,0.0
2998,0.017431602848808677,0.0
2999,-0.09893051452543393,0.0
3000,0.49360759132284665,0.0
3001,5.3484527853581945,0.0
3002,3.6769666376307915,0.0
3003,-2.9503668237826717,0.0
3004,1.6024893551119475,0.0
3005,-0.8101007436115932,0.0
3006,0.35116524958552997,0.0
3007,-0.24641381365600806,0.0
3008,0.004013255618193523,0.0
3009,-0.024486338586363524,0.0
3010,-0.10180786739036406,0.0
3011,-0.03066108932388156,0.0
3012,0.029703300844558984,0.0
3013,0.03353545686412017,0.0
3014,-0.0708565070991437,0.0
3015,-0.06153211136919448,0.0
3016,-0.04091380607257368,0.0
3017,1.531486369325354,0.0
3018,6.857871811571931,0.0
3019,0.13667618334594595,0.0
3020,-1.2064277137610857,0.0
3021,0.7365008473769321,0.0
3022,-0.4205954712669555,0.0
3023,0.24076200430665015,0.0
3024,-0.10550227630175164,0.0
3025,-0.0117948941397753,0.0
3026,-0.057482381902438956,0.0
3027,-0.05177695371732973,0.0
3028,-0.05836399003424326,0.0
3029,-0.09660795935381826,0.0
3030,0.08023814953303535,0.0
3031,-0.07908320315340857,0.0
3032,-0.077689944594285,0.0
3033,0.084373193981237,0.0
3034,3.2495835045225245,0.0
3035,6.535836307390409,0.0
3036,-2.643227842587765,0.0
3037,0.878913336308545,0.0
3038,-0.35354589674035614,0.0
3039,0.08431264022040741,0.0
3040,-0.10285092665819517,0.0
3041,-0.06680016620387504,0.0
3042,-0.09501814125351625,0.0
3043,-0.07616659315638907,0.0
3044,-0.057308623859099767,0.0
3045,-0.15461560918851033,0.0
3046,-0.05326163042311266,0.0
3047,-0.150403847610711,0.0
3048,-0.07221928412564566,0.0
3049,-0.019459512293007082,0.0
3050,0.4417051419318144,0.0
3051,5.372482008629985,0.0
3052,3.6900716465337795,0.0
3053,-2.8288528282622742,0.0
3054,1.4608196945209844,0.0
3055,-0.8422182849720132,0.0
3056,0.28759063281515107,0.0
3057,-0.14778532377578793,0.0
3058,-0.025858729413453654,0.0
3059,-0.046657025910401266,0.0
3060,-0.05633713947876265,0.0
3061,0.006787892016342473,0.0
3062,-0.008017319769328422,0.0
3063,-0.054991794097454694,0.0
3064,-0.004345758718991073,0.0
3065,-0.02843789358362476,0.0
3066,-0.07663920965343649,0.0
3067,1.5446010836184678,0.0
3068,6.8242969203465895,0.0
3069,-0.026207632543975956,0.0
3070,-1.1510438155220337,0.0
3071,0.8150255254934602,0.0
3072,-0.479383412159065,0.0
3073,0.13423425385005824,0.0
3074,-0.08222405780754051,0.0
3075,0.013160452709784231,0.0
3076,-0.10345227016971631,0.0
3077,0.06243405875416157,0.0
3078,-0.03722778467280619,0.0
3079,-0.07013886476081785,0.0
3080,-0.021985959229360374,0.0
3081,-0.0021914141575166335,0.0
3082,0.03341746109988483,0.0
3083,0.07355194018277808,0.0
3084,3.249389096922824,0.0
3085,6.40469195412024,0.0
3086,-2.6201939644656154,0.0
3087,0.9046640684365895,0.0
3088,-0.3249760504845161,0.0
3089,0.06864119422977531,0.0
3090,-0.07147481231015654,0.0
3091,0.00038523741559704124,0.0
3092,-0.0088857273092358,0.0
3093,-0.050901240856193665,0.0
3094,-0.01820380669547085,0.0
3095,0.07157487942675846,0.0
3096,0.013884903371664634,0.0
3097,-0.030857531910169052,0.0
3098,-0.02733249850548384,0.0
3099,-0.02476542171226053,0.0
3100,0.5482620089439172,0.0
3101,5.417591923773659,0.0
3102,3.6995565163045816,0.0
3103,-2.893967553370719,0.0
3104,1.5485535912785473,0.0
3105,-0.8003106471230131,0.0
3106,0.2973969614396641,0.0
3107,-0.14323247806637057,0.0
3108,0.028756510983370117,0.0
3109,0.03333246404709721,0.0
3110,-0.03796854163371339,0.0
3111,-0.015272514428596362,0.0
3112,-0.016916336308859088,0.0
3113,0.00611135418472419,0.0
3114,0.020910794242605717,0.0
3115,0.023894513492966712,0.0
3116,-0.060556988784512204,0.0
3117,1.3950747009364692,0.0
3118,6.893443939648586,0.0
3119,0.009514790326744835,0.0
3120,-1.051529952814901,0.0
3121,0.8123688529735146,0.0
3122,-0.44770776433050985,0.0
3123,0.17054751447203123,0.0
3124,-0.009595946632272222,0.0
3125,0.013101024597193991,0.0
3126,-0.003052428594383477,0.0
3127,-0.07583215555518576,0.0
3128,-0.050416229002914516,0.0
3129,-0.004708546924551603,0.0
3130,-0.0067113726238345415,0.0
3131,-0.00410729458045532,0.0
3132,-0.04140922660721191,0.0
3133,0.07359815248954175,0.0
3134,3.3277496896065153,0.0
3135,6.335674557383044,0.0
3136,-2.612236103252717,0.0
3137,0.9654362668383318,0.0
3138,-0.32760887849664017,0.0
3139,0.1048877747074035,0.0
3140,-0.07212782197417261,0.0
3141,0.06433796564588301,0.0
3142,0.030382411889166627,0.0
3143,0.06057669967568578,0.0
3144,0.021632176614881413,0.0
3145,0.06479372925194496,0.0
3146,0.055716636848946524,0.0
3147,0.0047472292020160275,0.0
3148,0.03864473993110204,0.0
3149,-0.05150728702677734,0.0
3150,0.4325382466772148,0.0
3151,5.457345701887365,0.0
3152,3.68025328326158,0.0
3153,-2.807194379088309,0.0
3154,1.552447263364128,0.0
3155,-0.7901060800696197,0.0
3156,0.31438910290607536,0.0
3157,-0.1614025385727657,0.0
3158,0.017369697402549473,0.0
3159,0.08745933818052114,0.0
3160,-0.01656353146920485,0.0
3161,0.019918529703945406,0.0
3162,0.02455676520101349,0.0
3163,0.03561334261053316,0.0
3164,0.07221688096346113,0.0
3165,0.08163272319525987,0.0
3166,0.08536898946256835,0.0
3167,1.4506087568734327,0.0
3168,6.833188330129189,0.0
3169,0.05103315420430065,0.0
3170,-1.1110594834980436,0.0
3171,0.8430524441966193,0.0
3172,-0.44607614434277587,0.0
3173,0.17383845235956175,0.0
3174,-0.14117498017488747,0.0
3175,0.04645064530759634,0.0
3176,-0.009495737839740536,0.0
3177,-0.08455923376236922,0.0
3178,-0.01438267566767444,0.0
3179,-0.0095057523919316,0.0
3180,0.019834648623134714,0.0
3181,-0.08179651356040822,0.0
3182,0.04509182270369886,0.0
3183,0.1299782290797376,0.0
3184,3.3685124901444583,0.0
3185,6.295945627094794,0.0
3186,-2.6383536962751704,0.0
3187,1.0001903952338005,0.0
3188,-0.3313604531646386,0.0
3189,0.18319456823537844,0.0
3190,-0.10489349617517194,0.0
3191,-0.016773385320913728,0.0
3192,-0.04123166189696122,0.0
3193,-0.03581035632176357,0.0
3194,-0.06633059660774983,0.0
3195,0.044959066231051927,0.0
3196,-0.04323157724127253,0.0
3197,-0.1140624072931554,0.0
3198,0.004909555873237756,0.0
3199,-0.0569785280367584,0.0
3200,0.39806786078932394,0.0
3201,5.5174660121876045,0.0
3202,3.6084377538641856,0.0
3203,-2.8075970071501604,0.0
3204,1.4703272814917572,0.0
3205,-0.7570210768308478,0.0
3206,0.3157901881234428,0.0
3207,-0.04153145438115406,0.0
3208,-0.06687298077988965,0.0
3209,0.08368002751047203,0.0
3210,0.03905526410928665,0.0
3211,-0.052434687655751974,0.0
3212,0.0159287021470748,0.0
3213,0.047513527840786586,0.0
3214,0.0883057335098742,0.0
3215,-0.02298849352401494,0.0
3216,-0.032303496359844905,0.0
3217,1.491706191261167,0.0
3218,6.905071878496423,0.0
3219,0.05293657920426463,0.0
3220,-1.0931585219034339,0.0
3221,0.8482706744885423,0.0
3222,-0.39886449851677974,0.0
3223,0.18407258772957139,0.0
3224,-0.037131456935378226,0.0
3225,-0.0282499370206893,0.0
3226,0.045822277566952556,0.0
3227,0.10011152303155875,0.0
3228,0.03381257434374459,0.0
3229,-0.008294558833714327,0.0
3230,0.06650799034286273,0.0
3231,0.03268972640159873,0.0
3232,-0.00047479698589179137,0.0
3233,0.19558240364111978,0.0
3234,3.327727813570223,0.0
3235,6.393293445537175,0.0
3236,-2.6498841461967606,0.0
3237,1.0025187012731231,0.0
3238,-0.2745099467669589,0.0
3239,0.07251368984914137,0.0
3240,0.038198968612570036,0.0
3241,0.03204351821217502,0.0
3242,0.03686583789162809,0.0
3243,0.0054323833478155305,0.0
3244,0.047614358716528686,0.0
3245,0.029630568531898688,0.0
3246,0.03282366073275585,0.0
3247,0.05213418868179405,0.0
3248,-0.07615055258719779,0.0
3249,-0.08667256988567096,0.0
3250,0.5202777235011291,0.0
3251,5.391910943156309,0.0
3252,3.7088952425982846,0.0
3253,-2.760739922233429,0.0
3254,1.6156664112116645,0.0
3255,-0.8305684861259638,0.0
3256,0.4206835852699758,0.0
3257,-0.13410458004613893,0.0
3258,0.04566523155076528,0.0
3259,-0.06017641666116583,0.0
3260,-0.06001600195857242,0.0
3261,0.017069077950508167,0.0
3262,-0.021149143467299125,0.0
3263,-0.0003115006164533616,0.0
3264,-0.006001072872716624,0.0
3265,0.02752843533085569,0.0
3266,0.02186568004144357,0.0
3267,1.5373739852269324,0.0
3268,6.944583378425902,0.0
3269,0.09573773118155438,0.0
3270,-0.9183260205308597,0.0
3271,0.8158742172382154,0.0
3272,-0.32904030291317304,0.0
3273,0.26553687538573334,0.0
3274,-0.007883911021166213,0.0
3275,0.04048015696835098,0.0
3276,0.06811532293891623,0.0
3277,-0.04272176933408347,0.0
3278,0.12215604946476448,0.0
3279,-0.031411872260344025,0.0
3280,-0.005604778550867787,0.0
3281,0.08952213204624908,0.0
3282,-0.026177383092126798,0.0
3283,0.09345239899637765,0.0
3284,3.363704001145416,0.0
3285,6.331443103488295,0.0
3286,-2.600602832958222,0.0
3287,1.018316633450239,0.0
3288,-0.18761238862316978,0.0
3289,0.03843837750658212,0.0
3290,-0.02566396999477956,0.0
3291,-0.018627741850252275,0.0
3292,0.014516201387176826,0.0
3293,0.06534218554955039,0.0
3294,0.05673894777023905,0.0
3295,0.022113476355630303,0.0
3296,0.039714133298528215,0.0
3297,0.07737352160297942,0.0
3298,0.047736129847758185,0.0
3299,0.08353480665067817,0.0
3300,0.5231649463613982,0.0
3301,5.547415790072416,0.0
3302,3.5822243204294537,0.0
3303,-2.7067947500844496,0.0
3304,1.5713658403898765,0.0
3305,-0.7518866065119633,0.0
3306,0.432540428527375,0.0
3307,-0.07925097081918306,0.0
3308,0.12419206596825078,0.0
3309,0.05295676020965982,0.0
3310,0.016789345968872875,0.0
3311,0.14794292279256893,0.0
3312,0.03522053012249388,0.0
3313,0.007761405616640932,0.0
3314,0.0013445070166976034,0.0
3315,0.14438054001875691,0.0
3316,0.016310239283763184,0.0
3317,1.5619536134253924,0.0
3318,6.893949568292223,0.0
3319,0.03371154701458154,0.0
3320,-0.9356475293451875,0.0
3321,0.8633004455396415,0.0
3322,-0.3858281701629408,0.0
3323,0.22436324752996487,0.0
3324,0.035003879808909344,0.0
3325,0.1509225092644662,0.0
3326,0.04976638931917177,0.0
3327,0.03513329570115188,0.0
3328,-0.08052982744175274,0.0
3329,-0.02574274489553966,0.0
3330,-0.07674965054529102,0.0
3331,-0.0037642732998450267,0.0
3332,0.09303182668446255,0.0
3333,0.04647353408623204,0.0
3334,3.3995576345623317,0.0
3335,6.356546942720263,0.0
3336,-2.6457066684758366,0.0
3337,0.9395623677831593,0.0
3338,-0.31831032542462795,0.0
3339,0.21109531608715637,0.0
3340,0.006363600511316493,0.0
3341,0.031058375303967666,0.0
3342,0.04954961084318342,0.0
3343,0.024063818479573226,0.0
3344,0.04695115845226129,0.0
3345,-0.05817935222558092,0.0
3346,-0.015098269866325668,0.0
3347,0.054077333812219026,0.0
3348,-0.006474988416941607,0.0
3349,0.04306253333467333,0.0
3350,0.3712545934949576,0.0
3351,5.5412848543442745,0.0
3352,3.580761484645491,0.0
3353,-2.7451096170236586,0.0
3354,1.5248322606834306,0.0
3355,-0.7164339722439635,0.0
3356,0.40119925270349793,0.0
3357,-0.025133296612461414,0.0
3358,0.07892392453660432,0.0
3359,0.014341036186620693,0.0
3360,0.09957932415998913,0.0
3361,0.04695374562585057,0.0
3362,0.026317234474399112,0.0
3363,0.125364595494816,0.0
3364,0.05769361544182036,0.0
3365,0.04990293544022587,0.0
3366,0.01658387794717782,0.0
3367,1.5943163854132463,0.0
3368,7.010891863836101,0.0
3369,0.027259595269114943,0.0
3370,-1.003978889489058,0.0
3371,0.8353836814853453,0.0
3372,-0.4006563583593105,0.0
3373,0.20335892078642848,0.0
3374,0.001585942537187481,0.0
3375,0.1771869298793437,0.0
3376,-0.026852500084263084,0.0
3377,0.06235762047617126,0.0
3378,0.052464340303724766,0.0
3379,0.06310653304683801,0.0
3380,0.06097761461614921,0.0
3381,-0.03901469582838494,0.0
3382,0.11537049002799943,0.0
3383,0.2353065739951384,0.0
3384,3.494075904810631,0.0
3385,6.352725519909477,0.0
3386,-2.67446713232916,0.0
3387,1.1388613836928283,0.0
3388,-0.2598080646573625,0.0
3389,0.18899437460779717,0.0
3390,0.1092744120077757,0.0
3391,0.07636919119698393,0.0
3392,0.10522833064379769,0.0
3393,0.08617892649946454,0.0
3394,0.08594634888097541,0.0
3395,0.08535690252463884,0.0
3396,0.09004245379630112,0.0
3397,0.00019080653760107646,0.0
3398,0.08589224778264454,0.0
3399,-0.012325839097868219,0.0
3400,0.6001011008929105,0.0
3401,5.5031631491854185,0.0
3402,3.6778866956023593,0.0
3403,-2.6321567248120257,0.0
3404,1.7237614233956775,0.0
3405,-0.7649144865456314,0.0
3406,0.3287999707706567,0.0
3407,-0.043995461503094274,0.0
3408,0.12180432539584647,0.0
3409,0.08313328912415693,0.0
3410,-0.09398379834777118,0.0
3411,0.039876374922730926,0.0
3412,0.008954366244835612,0.0
3413,-0.054369615912221704,0.0
3414,0.059148485396884304,0.0
3415,0.09497943109037411,0.0
3416,0.016286296213618278,0.0
3417,1.6054713359629675,0.0
3418,7.031074793933759,0.0
3419,-0.03192377769007865,0.0
3420,-1.0838510944126634,0.0
3421,0.8187028841666376,0.0
3422,-0.30724920244542037,0.0
3423,0.29413018635147753,0.0
3424,0.09664831904049406,0.0
3425,0.19070152372265728,0.0
3426,0.07536479229460008,0.0
3427,0.09345416094131878,0.0
3428,0.03874229052800364,0.0
3429,0.09142800201860261,0.0
3430,0.11962791988251009,0.0
3431,0.12093783887903387,0.0
3432,0.10695334603282558,0.0
3433,0.2049411296818678,0.0
3434,3.4221044204957476,0.0
3435,6.319486396212269,0.0
3436,-2.6761880788711188,0.0
3437,1.0778891548172886,0.0
3438,-0.22989194914689143,0.0
3439,0.047832563710673515,0.0
3440,0.03051386503192776,0.0
3441,-0.006553057827997047,0.0
3442,0.03302348028556727,0.0
3443,0.1350962101160463,0.0
3444,0.10919931539193913,0.0
3445,-0.0655795789035956,0.0
3446,0.037275366312847794,0.0
3447,0.02735304450771174,0.0
3448,0.043645668104785096,0.0
3449,0.07080476665666195,0.0
3450,0.5932683285518995,0.0
3451,5.571072310751029,0.0
3452,3.601571923483553,0.0
3453,-2.6462934554733675,0.0
3454,1.5601365495338357,0.0
3455,-0.7278131978897824,0.0
3456,0.40958070164742233,0.0
3457,0.07010378544175462,0.0
3458,0.17807290769867082,0.0
3459,0.06157199753830484,0.0
3460,-0.018376027687561497,0.0
3461,0.09027851130517185,0.0
3462,0.016546455378270666,0.0
3463,0.12610656060954317,0.0
3464,0.07280113516474115,0.0
3465,-0.00410983304200626,0.0
3466,0.1279091637157435,0.0
3467,1.5321067521744403,0.0
3468,6.945800767376026,0.0
3469,-0.16560854114595686,0.0
3470,-0.9443208013037967,0.0
3471,0.8732707968747153,0.0
3472,-0.38872400152669756,0.0
3473,0.2001905299525278,0.0
3474,-0.04775738048449907,0.0
3475,0.06614537354942598,0.0
3476,0.09165069975474205,0.0
3477,0.055219128048955575,0.0
3478,0.024351259310663988,0.0
3479,-0.002469895673549008,0.0
3480,0.08115936384217616,0.0
3481,-0.018905674360313138,0.0
3482,0.04167820662756891,0.0
3483,0.11871546093807711,0.0
3484,3.4875942051768267,0.0
3485,6.4024002061562815,0.0
3486,-2.642066384188576,0.0
3487,1.0684097796849914,0.0
3488,-0.31856071623904547,0.0
3489,0.2909834285357855,0.0
3490,0.05011435107539518,0.0
3491,0.06361460252064384,0.0
3492,0.0778773951180074,0.0
3493,0.013273986701575827,0.0
3494,0.03467093855556265,0.0
3495,-0.01761810708520077,0.0
3496,0.07431018638278336,0.0
3497,0.031060831713756707,0.0
3498,-0.030245905643903274,0.0
3499,0.07438807998115093,0.0
3500,0.6822323453899622,0.0
3501,5.590310218954976,0.0
3502,3.5914498699761555,0.0
3503,-2.7105400562738327,0.0
3504,1.565666886085104,0.0
3505,-0.6818675752677599,0.0
3506,0.448479807924986,0.0
3507,-0.09471112050093206,0.0
3508,0.004452514339514109,0.0
3509,0.015287013812189684,0.0
3510,-0.06060964765503555,0.0
3511,-0.012262699961249658,0.0
3512,0.164153697162723,0.0
3513,0.027224887159774964,0.0
3514,0.05497835583614388,0.0
3515,0.024418693050586998,0.0
3516,0.039168418910938585,0.0
3517,1.6256131932710278,0.0
3518,6.896707942265188,0.0
3519,-0.1780099054509948,0.0
3520,-0.9957271541698522,0.0
3521,0.843760774406166,0.0
3522,-0.4092412097088368,0.0
3523,0.12044938768635824,0.0
3524,-0.043109286368023574,0.0
3525,-0.007939911943462066,0.0
3526,0.04196760189592624,0.0
3527,0.036099855014209974,0.0
3528,-0.010139256035013866,0.0
3529,-0.002478048183320869,0.0
3530,0.016661994778844436,0.0
3531,0.07048213845888401,0.0
3532,0.010140621563416434,0.0
3533,0.07676728643475134,0.0
3534,3.4052745443673587,0.0
3535,6.358602445862049,0.0
3536,-2.689248416213284,0.0
3537,1.0480866587299444,0.0
3538,-0.3000737874284652,0.0
3539,0.12632185701812598,0.0
3540,-0.13935607943313244,0.0
3541,0.039033660234570215,0.0
3542,0.007591875023293813,0.0
3543,-0.11552215877998923,0.0
3544,0.07999130026413905,0.0
3545,-0.013413288259250249,0.0
3546,0.05504267350605998,0.0
3547,0.019681413609618247,0.0
3548,0.002875578427575881,0.0
3549,0.06594567224489117,0.0
3550,0.6363214582805903,0.0
3551,5.509393763947246,0.0
3552,3.4602492776564016,0.0
3553,-2.667176295449003,0.0
3554,1.5867944661447853,0.0
3555,-0.7744630233995009,0.0
3556,0.3822329727182827,0.0
3557,-0.0918787423805123,0.0
3558,0.14309465436761795,0.0
3559,0.06933014843226923,0.0
3560,0.0033411379630518823,0.0
3561,0.025725949116361904,0.0
3562,0.014094783114916899,0.0
3563,-0.020678589586877898,0.0
3564,-0.04602165731264897,0.0
3565,0.0107902271591389,0.0
3566,0.11320118792072735,0.0
3567,1.6822656483996958,0.0
3568,6.955230672149891,0.0
3569,-0.13434710964693428,0.0
3570,-0.9086650373111675,0.0
3571,0.8250606626996847,0.0
3572,-0.41791406899638883,0.0
3573,0.19635736554384653,0.0
3574,-0.009065193950154093,0.0
3575,-0.003236099207583828,0.0
3576,-0.0827227563284072,0.0
3577,0.06453806954725251,0.0
3578,0.12945409428303892,0.0
3579,-0.05209421026119811,0.0
3580,0.03448061797347799,0.0
3581,-8.00950446715118e-05,0.0
3582,0.033879562864441395,0.0
3583,0.09429070288844016,0.0
3584,3.5154419240700254,0.0
3585,6.272163574978625,0.0
3586,-2.6186677059075247,0.0
3587,1.0996252567347127,0.0
3588,-0.3287709546925945,0.0
3589,0.20261931999086952,0.0
3590,-0.11727813618746877,0.0
3591,0.05560205400199524,0.0
3592,-0.0016695409631024127,0.0
3593,0.014743579036315678,0.0
3594,0.03654257390783375,0.0
3595,0.011524020707834249,0.0
3596,0.010292673574761414,0.0
3597,-0.04962435093558711,0.0
3598,0.022741951573487657,0.0
3599,-0.06571293391007353,0.0
3600,0.4583833801441769,0.0
3601,5.53658602788628,0.0
3602,3.455128697277761,0.0
3603,-2.8452414496048717,0.0
3604,1.540561414172925,0.0
3605,-0.8502319493977057,0.0
3606,0.22582973644988646,0.0
3607,-0.1398950796418755,0.0
3608,-0.008441329645501334,0.0
3609,-0.08685953604409835,0.0
3610,-0.023087311498576332,0.0
3611,0.013683322213146372,0.0
3612,0.03623859339446264,0.0
3613,0.06964873990345544,0.0
3614,0.14811817970239513,0.0
3615,0.090696039755044,0.0
3616,0.17696991650433255,0.0
3617,1.6621881822774378,0.0
3618,6.97170584307164,0.0
3619,-0.10592350749262698,0.0
3620,-0.9409969564420464,0.0
3621,0.8114231635431612,0.0
3622,-0.306491758266521,0.0
3623,0.11386484598522605,0.0
3624,-0.048953697498411095,0.0
3625,-0.0021319638662757323,0.0
3626,0.04458667283315482,0.0
3627,0.06764941453614076,0.0
3628,0.0529236935876827,0.0
3629,0.045865901306111845,0.0
3630,-0.04085553473647044,0.0
3631,0.03331818100654865,0.0
3632,-0.00537668562477733,0.0
3633,0.17798659629920183,0.0
3634,3.4856990436852286,0.0
3635,6.4107871732359,0.0
3636,-2.7474218696558323,0.0
3637,1.0488871855702429,0.0
3638,-0.44359659156776043,0.0
3639,0.134697221315761,0.0
3640,-0.024009380196048626,0.0
3641,0.013299542071267961,0.0
3642,0.0058006157723112794,0.0
3643,0.0832898073294108,0.0
3644,-0.09131592560068164,0.0
3645,0.09138537037722766,0.0
3646,0.12365751563058167,0.0
3647,-0.04424588843066379,0.0
3648,-0.04252895394952941,0.0
3649,0.0011040237974001,0.0
3650,0.5083389019874063,0.0
3651,5.613323836415818,0.0
3652,3.46992879635638,0.0
3653,-2.734796212870437,0.0
3654,1.4727067776166605,0.0
3655,-0.7819786175791653,0.0
3656,0.3337020427766672,0.0
3657,-0.11372881125441611,0.0
3658,0.017468652003924424,0.0
3659,0.036723611664466096,0.0
3660,0.06320698372222307,0.0
3661,-0.028011090730015745,0.0
3662,-0.022096701032593695,0.0
3663,-0.11871868273651756,0.0
3664,0.009915491183014317,0.0
3665,-0.06934037419987663,0.0
3666,-0.02203251031719289,0.0
3667,1.631074754576588,0.0
3668,6.886567524092095,0.0
3669,-0.19147022725538748,0.0
3670,-0.8512363479146567,0.0
3671,0.7240599749692231,0.0
3672,-0.4190326267715035,0.0
3673,0.20359045499359862,0.0
3674,-0.054975093772578885,0.0
3675,0.04295090100373948,0.0
3676,-0.027447280864070008,0.0
3677,-0.08588407223656218,0.0
3678,-0.07752763609762209,0.0
3679,-0.010475417277471137,0.0
3680,-0.05514235186272264,0.0
3681,-0.023046500876085237,0.0
3682,0.010752572620980092,0.0
3683,0.09986847199745372,0.0
3684,3.480681755093262,0.0
3685,6.189646710845721,0.0
3686,-2.6280619374691225,0.0
3687,1.0540640351891264,0.0
3688,-0.3285016803534346,0.0
3689,0.12837125428129054,0.0
3690,-0.1134187266425109,0.0
3691,0.022516219230095315,0.0
3692,-0.07104134918398342,0.0
3693,0.031670218866623925,0.0
3694,-0.06351229665223329,0.0
3695,0.03862619219058866,0.0
3696,0.011134222184215852,0.0
3697,-0.03637564794855293,0.0
3698,-0.00848048786006523,0.0
3699,0.004959791169345841,0.0
3700,0.4730814978257892,0.0
3701,5.638553471239121,0.0
3702,3.530761795584811,0.0
3703,-2.6835466155640098,0.0
3704,1.5119607265739037,0.0
3705,-0.8045777560871629,0.0
3706,0.4133239744062601,0.0
3707,-0.10460973858185384,0.0
3708,0.016996791396996395,0.0
3709,-0.011146555611528358,0.0
3710,0.049911445231971344,0.0
3711,-0.01274116148029458,0.0
3712,0.0046483479886694455,0.0
3713,-0.018886992750297066,0.0
3714,-0.05294694760225822,0.0
3715,0.03899096979641227,0.0
3716,0.0027760504262517097,0.0
3717,1.556203309140192,0.0
3718,6.922722150835558,0.0
3719,-0.24713900819490744,0.0
3720,-0.9948197935955876,0.0
3721,0.7245595538046065,0.0
3722,-0.373681949397678,0.0
3723,0.13132776166175636,0.0
3724,-0.1294230233796526,0.0
3725,0.0392058717282755,0.0
3726,-0.047605514376752776,0.0
3727,-0.09480133531245744,0.0
3728,-0.16872275615845816,0.0
3729,-0.16244158122072744,0.0
3730,-0.08493195263606397,0.0
3731,-0.08933773468312427,0.0
3732,-0.1350666268302962,0.0
3733,0.020626045405417744,0.0
3734,3.39714024425046,0.0
3735,6.1163513442847455,0.0
3736,-2.8710471709323753,0.0
3737,0.9190302239055532,0.0
3738,-0.521164435712665,0.0
3739,0.08853371824336592,0.0
3740,-0.11753954278706366,0.0
3741,-0.0009878175809951428,0.0
3742,-0.06861651844781624,0.0
3743,-0.1220042554103374,0.0
3744,-0.040129058010533215,0.0
3745,-0.05871095927097178,0.0
3746,-0.029289196475451404,0.0
3747,-0.06137306223343211,0.0
3748,-0.02079629069929009,0.0
3749,-0.049058207525643105,0.0
3750,0.48638398090697615,0.0
3751,5.694277587347539,0.0
3752,3.332436363549203,0.0
3753,-2.7218320460527647,0.0
3754,1.5412508628205959,0.0
3755,-0.735619590400463,0.0
3756,0.3003047908286388,0.0
3757,-0.05900721658485726,0.0
3758,0.03962507394228875,0.0
3759,-0.03993492883132788,0.0
3760,-0.03378343441262977,0.0
3761,0.01199473671025815,0.0
3762,-0.030868999657857304,0.0
3763,-0.0648356156054546,0.0
3764,-0.03808585923355154,0.0
3765,-0.013256144857466474,0.0
3766,0.009109822564680937,0.0
3767,1.6838360768956497,0.0
3768,6.863685831591678,0.0
3769,-0.26053997770062853,0.0
3770,-0.9914283305108276,0.0
3771,0.7666962188441308,0.0
3772,-0.37906164534137465,0.0
3773,0.23640298951104705,0.0
3774,0.010862888090984353,0.0
3775,0.08974764555510469,0.0
3776,0.01334451582285479,0.0
3777,0.0029882169520751827,0.0
3778,0.0013946858842889614,0.0
3779,0.026233056954760015,0.0
3780,-0.10468718132919844,0.0
3781,0.04629348823845117,0.0
3782,0.06117907816981836,0.0
3783,0.05975617848294071,0.0
3784,3.5857013962830053,0.0
3785,6.160375010021114,0.0
3786,-2.773248843564627,0.0
3787,0.9465055129844397,0.0
3788,-0.5270847795849607,0.0
3789,0.12325760445400963,0.0
3790,-0.015293594089503766,0.0
3791,-0.0690453491171617,0.0
3792,-0.030482479517994876,0.0
3793,0.03815595689552039,0.0
3794,-0.05178324905350735,0.0
3795,-0.01888168149219071,0.0
3796,-0.038218856004603556,0.0
3797,-0.005051846090106704,0.0
3798,0.0756103615239001,0.0
3799,-0.03880585601630109,0.0
3800,0.570218708292353,0.0
3801,5.658861039144496,0.0
3802,3.361694490969465,0.0
3803,-2.690638078031069,0.0
3804,1.5397077808360395,0.0
3805,-0.817397853991427,0.0
3806,0.2707005985688178,0.0
3807,-0.17840125293547737,0.0
3808,0.05315783472823765,0.0
3809,-0.02897054803884538,0.0
3810,0.09734600256673703,0.0
3811,0.06731339550900405,0.0
3812,-0.026688058654049628,0.0
3813,0.0008292618704005767,0.0
3814,0.06609645737703815,0.0
3815,-0.027658759254016216,0.0
3816,-0.06639044653530338,0.0
3817,1.6889263186837582,0.0
3818,6.949977027560795,0.0
3819,-0.28711871573197717,0.0
3820,-0.8771166093752909,0.0
3821,0.7460135492774985,0.0
3822,-0.3657255182138246,0.0
3823,0.22451739766679465,0.0
3824,-0.08573994312807298,0.0
3825,0.025486631937744655,0.0
3826,0.019287031018928973,0.0
3827,-0.050118258844635645,0.0
3828,0.07256413917013367,0.0
3829,0.010465223220932178,0.0
3830,-0.007240289321699362,0.0
3831,-0.07462813445618381,0.0
3832,0.06447067264401386,0.0
3833,0.10466655541538661,0.0
3834,3.502031458227182,0.0
3835,6.144673703254038,0.0
3836,-2.7651737983389357,0.0
3837,1.0023495704849492,0.0
3838,-0.342973027856978,0.0
3839,0.018515741670420333,0.0
3840,-0.06359911663830044,0.0
3841,-0.028829950086262743,0.0
3842,-0.1273629559536982,0.0
3843,-0.008804900035001121,0.0
3844,0.016022477461859815,0.0
3845,-0.09853034373419967,0.0
3846,0.01796811567240151,0.0
3847,-0.006118258481325033,0.0
3848,-0.0433507424830322,0.0
3849,-0.060230358276186266,0.0
3850,0.5494287166226194,0.0
3851,5.494174893172249,0.0
3852,3.40511064546298,0.0
3853,-2.7462348410707613,0.0
3854,1.5929806077197866,0.0
3855,-0.6947440121885338,0.0
3856,0.29886346985961065,0.0
3857,-0.15042192149915634,0.0
3858,0.10734111303087537,0.0
3859,-0.03230912477487851,0.0
3860,-0.07248904027307108,0.0
3861,0.003952462788607575,0.0
3862,-0.048903200337816206,0.0
3863,-0.023224103346193656,0.0
3864,-0.032624065969932885,0.0
3865,-0.04020165557605708,0.0
3866,0.030578399863578586,0.0
3867,1.628453950938313,0.0
3868,6.97885613073874,0.0
3869,-0.3407776808856247,0.0
3870,-0.9716493756276908,0.0
3871,0.6735088645449584,0.0
3872,-0.3918206147028636,0.0
3873,0.12348414886083162,0.0
3874,-0.07748328178046729,0.0
3875,-0.025599696167844577,0.0
3876,-0.07925239951707477,0.0
3877,0.013152663837221357,0.0
3878,-0.07006558421329621,0.0
3879,-0.10242873066006247,0.0
3880,-0.04675733643079909,0.0
3881,-0.0852605540200603,0.0
3882,-0.0769738867290167,0.0
3883,0.0023525970073712127,0.0
3884,3.486660058309682,0.0
3885,6.161337909699022,0.0
3886,-2.7811221975714977,0.0
3887,1.0519910302058315,0.0
3888,-0.4632577736804369,0.0
3889,-0.0044140496724238976,0.0
3890,-0.1303091369121979,0.0
3891,0.06572154847518188,0.0
3892,-0.14768854976730938,0.0
3893,-0.08726028336109509,0.0
3894,-0.17446037879740783,0.0
3895,-0.12457899861563042,0.0
3896,-0.07710044763338754,0.0
3897,-0.09226308760537255,0.0
3898,-0.0620696277855109,0.0
3899,-0.019220639907411505,0.0
3900,0.4510547121138461,0.0
3901,5.451680420347009,0.0
3902,3.2026040190963987,0.0
3903,-2.8298377616341615,0.0
3904,1.532439266383322,0.0
3905,-0.8312620469744041,0.0
3906,0.3174670247703583,0.0
3907,-0.09276651335112171,0.0
3908,0.06474528568513449,0.0
3909,0.11160114768767361,0.0
3910,-0.04364551854306083,0.0
3911,-0.027212720688549626,0.0
3912,-0.10901724667987195,0.0
3913,0.021045368990202807,0.0
3914,-0.021768640345430006,0.0
3915,0.010483927007447453,0.0
3916,-0.004017718551137034,0.0
3917,1.6096771737988376,0.0
3918,6.866871065567553,0.0
3919,-0.4693501994868628,0.0
3920,-0.9965836550349355,0.0
3921,0.6410262421531456,0.0
3922,-0.4713633008890284,0.0
3923,0.019902184457543142,0.0
3924,-0.21329761000856223,0.0
3925,-0.22255843279252707,0.0
3926,-0.17852267026105842,0.0
3927,-0.11722749784482411,0.0
3928,-0.20570678489742036,0.0
3929,-0.17706468207817508,0.0
3930,-0.08543314406229746,0.0
3931,-0.07288515148864225,0.0
3932,-0.13875488381349135,0.0
3933,-0.09731475861595061,0.0
3934,3.4256904106652235,0.0
3935,6.063274080974436,0.0
3936,-2.9750308041682128,0.0
3937,1.0169280376272947,0.0
3938,-0.49744735469444,0.0
3939,0.05128654346702237,0.0
3940,-0.17968840015125442,0.0
3941,-0.161878489427935,0.0
3942,-0.005304623862355501,0.0
3943,-0.19832806406811307,0.0
3944,-0.14388095686034846,0.0
3945,-0.1485534534702287,0.0
3946,-0.1440987371348036,0.0
3947,-0.10457004740193832,0.0
3948,-0.13929737318622482,0.0
3949,-0.15528646503715615,0.0
3950,0.47142092271485997,0.0
3951,5.473605012022255,0.0
3952,3.334107953425139,0.0
3953,-2.661129535347672,0.0
3954,1.3855008340028827,0.0
3955,-0.8981743783423413,0.0
3956,0.20371882493028448,0.0
3957,-0.1729232510290309,0.0
3958,-0.05467541039505471,0.0
3959,-0.07981780169608395,0.0
3960,0.0013515855467295529,0.0
3961,-0.09598235672990559,0.0
3962,-0.0872522577631976,0.0
3963,-0.06290819434687919,0.0
3964,0.037353645774590494,0.0
3965,-0.1343847114977848,0.0
3966,-0.11719030894007348,0.0
3967,1.5338424633086358,0.0
3968,6.819779981040133,0.0
3969,-0.3944118977251886,0.0
3970,-0.8824436256753986,0.0
3971,0.6276528966050933,0.0
3972,-0.4183596939139684,0.0
3973,0.000697958849121022,0.0
3974,-0.20346093435423274,0.0
3975,-0.03425835925522616,0.0
3976,-0.03388004319274801,0.0
3977,-0.14255409957109033,0.0
3978,-0.21237135494478282,0.0
3979,-0.04224316124297845,0.0
3980,-0.10952660708642806,0.0
3981,-0.05992280147449695,0.0
3982,-0.09604009610497012,0.0
3983,0.031156293324881047,0.0
3984,3.463239879746768,0.0
3985,6.097735952372658,0.0
3986,-2.9678455947682103,0.0
3987,1.0461864143636095,0.0
3988,-0.5087004342668741,0.0
3989,0.1435176430618555,0.0
3990,-0.08181021669269918,0.0
3991,-0.09966721300150946,0.0
3992,-0.12019236796634565,0.0
3993,-0.18002929925288383,0.0
3994,-0.11390264579474545,0.0
3995,0.009555384940302135,0.0
3996,0.05480491552224716,0.0
3997,-0.03619965643732267,0.0
3998,-0.09624307977099804,0.0
3999,-0.032653377326786436,0.0
4000,0.4632118821913064,0.0
4001,5.5059468376778735,0.0
4002,3.2037038205200625,0.0
4003,-2.7242894198045056,0.0
4004,1.4780786843890144,0.0
4005,-0.8908463158337567,0.0
4006,0.2619787461938421,0.0
4007,-0.14423802427878793,0.0
4008,-0.06438591244136947,0.0
4009,-0.06277208825487353,0.0
4010,-0.01524125372726702,0.0
4011,-0.03637129469143125,0.0
4012,0.0212848007156965,0.0
4013,-0.029185133444465473,0.0
4014,-0.06881507044395346,0.0
4015,-0.08288701325044563,0.0
4016,-0.039264572755600566,0.0
4017,1.6770832647182723,0.0
4018,6.895065592664614,0.0
4019,-0.402936789598175,0.0
4020,-0.9593086314529874,0.0
4021,0.6906445055075964,0.0
4022,-0.3647622760288284,0.0
4023,0.14147471542413287,0.0
4024,-0.04984181279567724,0.0
4025,0.015350620830902722,0.0
4026,-0.07836473175449105,0.0
4027,-0.059882319451789526,0.0
4028,-0.03303349085741663,0.0
4029,-0.03232572132096952,0.0
4030,-0.003169802630892846,0.0
4031,0.025573067837271823,0.0
4032,0.047675349684314736,0.0
4033,0.11147371668116086,0.0
4034,3.550341290524261,0.0
4035,6.156277341358628,0.0
4036,-2.79529194808416,0.0
4037,1.0929446714011777,0.0
4038,-0.39776929159258617,0.0
4039,0.10896128694689629,0.0
4040,0.06321441695525679,0.0
4041,0.07576951986085038,0.0
4042,0.03491226051917323,0.0
4043,0.021931889742925106,0.0
4044,0.03609971870773038,0.0
4045,0.16955997920771976,0.0
4046,-0.039388351068049214,0.0
4047,-0.060067644672734684,0.0
4048,0.008110011936108486,0.0
4049,0.07484442795178582,0.0
4050,0.6054116736893282,0.0
4051,5.686991719204685,0.0
4052,3.3020798406778615,0.0
4053,-2.6773964447741707,0.0
4054,1.6218227755351835,0.0
4055,-0.8299141539228835,0.0
4056,0.3694103285016921,0.0
4057,-0.09497696492898686,0.0
4058,0.056260656090764645,0.0
4059,-0.03951174233098868,0.0
4060,0.029725112794874813,0.0
4061,0.043634632674333165,0.0
4062,-0.010583006765977745,0.0
4063,0.08436073931409105,0.0
4064,0.015004131669823369,0.0
4065,0.015549654789193089,0.0
4066,0.10846200239033602,0.0
4067,1.6760816736489987,0.0
4068,7.010666029875969,0.0
4069,-0.33816422576740457,0.0
4070,-0.8545731049745032,0.0
4071,0.7394570658547598,0.0
4072,-0.28941019249352395,0.0
4073,0.25279532605017935,0.0
4074,-0.07600746792416592,0.0
4075,0.023080056864241784,0.0
4076,0.0667005080672887,0.0
4077,0.12713109634726313,0.0
4078,0.03321088338719186,0.0
4079,0.07276067593014388,0.0
4080,0.012613780405586526,0.0
4081,-0.022067153038725647,0.0
4082,0.06464223886759982,0.0
4083,0.16907314122350273,0.0
4084,3.6018018702054753,0.0
4085,6.1095920601080715,0.0
4086,-2.7636650056828413,0.0
4087,1.1379669247121318,0.0
4088,-0.33343526246083427,0.0
4089,0.16088393616163166,0.0
4090,-0.02216624832759262,0.0
4091,0.07212948836562866,0.0
4092,0.027021701525111685,0.0
4093,0.018966633288941496,0.0
4094,0.05526670033203705,0.0
4095,0.02978100665202337,0.0
4096,0.10250398208604883,0.0
4097,0.017173300865258305,0.0
4098,0.018328312178916544,0.0
4099,0.0739576772680075,0.0
4100,0.6227559895065665,0.0
4101,5.724822462654564,0.0
4102,3.3012426447214183,0.0
4103,-2.557257136614304,0.0
4104,1.4796063303817075,0.0
4105,-0.7445893093671124,0.0
4106,0.44849017915188116,0.0
4107,-0.10188823428329263,0.0
4108,0.12180787917448618,0.0
4109,0.006902324618565155,0.0
4110,0.03001867137153647,0.0
4111,-0.08685640980945845,0.0
4112,0.02840423503181369,0.0
4113,0.08028439383880265,0.0
4114,-0.046935160608615516,0.0
4115,0.017816785036110682,0.0
4116,0.01061470867885141,0.0
4117,1.7313374230372196,0.0
4118,7.11169411877648,0.0
4119,-0.34322426311003834,0.0
4120,-0.7736296093119517,0.0
4121,0.7991245023673345,0.0
4122,-0.38095702272535636,0.0
4123,0.15807605243166484,0.0
4124,-0.12961670423538135,0.0
4125,0.05415300852132475,0.0
4126,0.08548350594198416,0.0
4127,0.08869503036557538,0.0
4128,0.08617641040870863,0.0
4129,0.07217921329418303,0.0
4130,-0.06621710039956329,0.0
4131,0.009249081272497864,0.0
4132,-0.0002968231300255128,0.0
4133,0.08034272454160946,0.0
4134,3.524995391122576,0.0
4135,6.209291634296475,0.0
4136,-2.769163200548713,0.0
4137,1.2463251891500216,0.0
4138,-0.46256342834565933,0.0
4139,0.13857296023264426,0.0
4140,-0.002490838830933168,0.0
4141,0.07256108037547943,0.0
4142,0.019889434331893885,0.0
4143,0.009109416750673734,0.0
4144,0.06419001254404413,0.0
4145,0.03417791543179358,0.0
4146,0.0059583591710914915,0.0
4147,0.10374717505721943,0.0
4148,0.03827219218760036,0.0
4149,-0.005760548464831622,0.0
4150,0.5705020147937557,0.0
