timestamp,value-0,is_anomaly
0,0.3003388320142064,0.0
1,4.490800556987403,0.0
2,4.942174866863245,0.0
3,-3.0251762258268906,0.0
4,1.5923492036126703,0.0
5,-0.8301847613719586,0.0
6,0.2380793887138657,0.0
7,-0.17319257403576493,0.0
8,-0.026064997155902506,0.0
9,0.047475166691450084,0.0
10,0.09066783723183645,0.0
11,-0.0978533718087767,0.0
12,0.0340455448278907,0.0
13,-0.01979641628349275,0.0
14,0.03140589461132652,0.0
15,-0.06864613227603342,0.0
16,-0.05484345461776327,0.0
17,1.0007760244737476,0.0
18,6.433520287289069,0.0
19,1.5157664434689673,0.0
20,-1.9596920906873507,0.0
21,1.232124060516004,0.0
22,-0.666914197236712,0.0
23,0.16177912794078642,0.0
24,-0.15740306532923057,0.0
25,-0.043658460416738244,0.0
26,-0.0051645821495179545,0.0
27,-0.008006180422045844,0.0
28,-0.0023418238246963943,0.0
29,-0.03452479806977668,0.0
30,0.06752768802302438,0.0
31,-0.037760373774519455,0.0
32,-0.06940877106528423,0.0
33,-0.04841472627635789,0.0
34,2.495477087813885,0.0
35,6.8224175922649195,0.0
36,-1.805330350325901,0.0
37,0.2172211038521136,0.0
38,0.10389002591807275,0.0
39,-0.189218102820495,0.0
40,0.01657011825302149,0.0
41,0.05544158104052786,0.0
42,-0.06739075915100323,0.0
43,0.004091099843541409,0.0
44,0.0178855103959702,0.0
45,0.012442276423087819,0.0
46,-0.05936769527158048,0.0
47,0.022086925253452055,0.0
48,-0.053414103822593456,0.0
49,0.0014036249588338552,0.0
50,0.33663299349939185,0.0
51,4.619214763474834,0.0
52,4.900761286164176,0.0
53,-3.0535457496600236,0.0
54,1.5624678251443995,0.0
55,-0.7987590863269732,0.0
56,0.31887263972236113,0.0
57,-0.0950501405717228,0.0
58,-0.016328485207029626,0.0
59,0.11352707470063778,0.0
60,0.02446572539688087,0.0
61,0.023661291741422105,0.0
62,0.05773465293061413,0.0
63,0.07773440811028998,0.0
64,-0.02777060930407223,0.0
65,0.01824177825661038,0.0
66,0.04537452202447668,0.0
67,1.0104492074637712,0.0
68,6.495999061589849,0.0
69,1.5322474380146038,0.0
70,-2.005191632521103,0.0
71,1.181057455923083,0.0
72,-0.6395206110367745,0.0
73,0.28300882379794023,0.0
74,-0.12209340483335283,0.0
75,-0.04742447351085918,0.0
76,-0.02426072389993702,0.0
77,-0.062451578461960186,0.0
78,-0.024022646750622642,0.0
79,0.007197123254707373,0.0
80,-0.02658655951319837,0.0
81,-0.13343246113985943,0.0
82,-0.10206236919540966,0.0
83,-0.030597318502698322,0.0
84,2.443916660601564,0.0
85,6.7638642340963795,0.0
86,-1.7788222157252644,0.0
87,0.11891681309135979,0.0
88,0.20181212736495663,0.0
89,-0.06275500231558608,0.0
90,0.031963300797696506,0.0
91,-0.021147535564146634,0.0
92,0.014470033376191049,0.0
93,0.014338886261823764,0.0
94,0.07633759003493969,0.0
95,-0.025982472746971932,0.0
96,-0.055686228381049176,0.0
97,-0.019520438752500324,0.0
98,0.019672540750355388,0.0
99,-0.0398756445030045,0.0
100,0.33177833466061163,0.0
101,4.5103082393540594,0.0
102,4.894956325216545,0.0
103,-3.0643273165695555,0.0
104,1.5543499544563757,0.0
105,-0.6815649318322866,0.0
106,0.25158477519476197,0.0
107,-0.00985826742557648,0.0
108,0.03605312212871352,0.0
109,0.023324415010899716,0.0
110,0.015604417387961788,0.0
111,-0.003233966417986834,0.0
112,0.02746470037597174,0.0
113,-0.016561622090467666,0.0
114,0.041170400632466186,0.0
115,0.06789695082038527,0.0
116,0.04387401786874631,0.0
117,1.0441223314111914,0.0
118,6.5824436216945115,0.0
119,1.5760046582248148,0.0
120,-1.7611219493833585,0.0
121,1.2854510544853797,0.0
122,-0.5288514358937834,0.0
123,0.3243519612669426,0.0
124,0.058878375248668215,0.0
125,0.018628217834085706,0.0
126,0.06952692109691172,0.0
127,0.10053268385470665,0.0
128,0.022940202395063086,0.0
129,0.004958170808021281,0.0
130,-0.025387353940282405,0.0
131,0.04289211507199794,0.0
132,-0.06478737688405693,0.0
133,-0.0015838252746922694,0.0
134,2.5368756868710656,0.0
135,6.887444236045333,0.0
136,-1.7753584555353075,0.0
137,0.18720136867691506,0.0
138,0.1259235569795249,0.0
139,-0.10100417037972702,0.0
140,0.011384999753923895,0.0
141,-0.045145909438338475,0.0
142,0.0005163457994400095,0.0
143,0.015958531815206182,0.0
144,0.039290666373041225,0.0
145,-0.037102838864856845,0.0
146,-0.01582198134455395,0.0
147,0.001180574091187856,0.0
148,0.10544179995751721,0.0
149,0.061737913147942344,0.0
150,0.314542305769965,0.0
151,4.573391184026556,0.0
152,4.89783686220761,0.0
153,-2.974716583661987,0.0
154,1.5177884058166204,0.0
155,-0.7590405719841452,0.0
156,0.21646774028088295,0.0
157,-0.17574644626839836,0.0
158,0.06565110905260116,0.0
159,0.02831412559035255,0.0
160,-0.01941326776549341,0.0
161,-0.060969198365264765,0.0
162,-0.013449498472340253,0.0
163,0.05470008763076209,0.0
164,0.03922786404600628,0.0
165,0.008594279493122432,0.0
166,0.02248365823858107,0.0
167,1.0195955089692132,0.0
168,6.441817281478675,0.0
169,1.5596707529384441,0.0
170,-1.8913917997537473,0.0
171,1.21704778079968,0.0
172,-0.6829984364564713,0.0
173,0.24884851688207038,0.0
174,-0.10377924293476856,0.0
175,0.07776698264725,0.0
176,-0.023695778132677005,0.0
177,-0.04228655005156222,0.0
178,-0.05484083358141528,0.0
179,-0.14999407555361322,0.0
180,0.0009091800742991457,0.0
181,-0.06180693212715327,0.0
182,-0.09860601377099791,0.0
183,0.058052679794080395,0.0
184,2.5523427806316445,0.0
185,6.856413946134333,0.0
186,-1.8038809747768982,0.0
187,0.22672619922691042,0.0
188,0.16841513812939343,0.0
189,-0.057428984409893725,0.0
190,0.05051839407560789,0.0
191,-0.0440331667061135,0.0
192,0.05389653204803937,0.0
193,-0.02961722736051762,0.0
194,0.020967992741529315,0.0
195,-0.04020106380034538,0.0
196,0.013965817101191116,0.0
197,-0.05668497367302634,0.0
198,-0.012557355457577551,0.0
199,0.004784590359201321,0.0
200,0.3002243474931104,0.0
201,4.575196864978724,0.0
202,4.89149581443742,0.0
203,-3.063803463418359,0.0
204,1.4837503975885091,0.0
205,-0.7344536524011815,0.0
206,0.30465895091890494,0.0
207,-0.16652531897392875,0.0
208,0.013919771306446917,0.0
209,0.0910329166408414,0.0
210,0.06310752811723355,0.0
211,-0.0028627789344308624,0.0
212,-0.00933410619125466,0.0
213,-0.06164082716750978,0.0
214,-0.07817528576576416,0.0
215,-0.018537391298430718,0.0
216,-0.07229401175319547,0.0
217,0.9727154671688426,0.0
218,6.440303558055045,0.0
219,1.3336635608261762,0.0
220,-2.0529804433406977,0.0
221,1.1414229608764082,0.0
222,-0.6806286179086067,0.0
223,0.17451497641235328,0.0
224,-0.17236852802068242,0.0
225,0.030015005401930347,0.0
226,-0.05908827862341977,0.0
227,0.03559215955409051,0.0
228,-0.01588808268471831,0.0
229,-0.11726188443621924,0.0
230,0.01575026441302633,0.0
231,-0.01107323827976614,0.0
232,-0.021656754570418643,0.0
233,-0.014794869630494731,0.0
234,2.4991583489447446,0.0
235,6.769922665665083,0.0
236,-1.8859021568374874,0.0
237,0.18534721954475503,0.0
238,0.01668476603738347,0.0
239,-0.13934923203185337,0.0
240,-0.038764218472818385,0.0
241,-0.11051907102043496,0.0
242,-0.02407825593006148,0.0
243,-0.03599392552095963,0.0
244,-0.09127197925474155,0.0
245,-0.08895786503781153,0.0
246,0.002923617585099514,0.0
247,-0.02204300542993245,0.0
248,0.013276556408669885,0.0
249,0.015285124144309423,0.0
250,0.22892873422256232,0.0
251,4.59777206399536,0.0
252,4.921846381481939,0.0
253,-3.008584589271357,0.0
254,1.591184220614804,0.0
255,-0.7339047277718795,0.0
256,0.1801574614182504,0.0
257,-0.18541335398459807,0.0
258,-0.028836053303771942,0.0
259,-0.07893839194970466,0.0
260,-0.0953098489518525,0.0
261,-0.08309354814890427,0.0
262,-0.006785903339023409,0.0
263,0.02990971399519169,0.0
264,0.006206861737203792,0.0
265,0.012067337827029685,0.0
266,-0.03083738451072513,0.0
267,1.0410919387868773,0.0
268,6.472485816823834,0.0
269,1.4119115584894055,0.0
270,-1.9055131551716211,0.0
271,1.2553603999312386,0.0
272,-0.5260736191750401,0.0
273,0.3200976900686685,0.0
274,-0.01259794654181138,0.0
275,0.021124222969895863,0.0
276,-0.04588311963163294,0.0
277,0.042678941901099846,0.0
278,0.008323476490655967,0.0
279,-0.06778985101951697,0.0
280,-0.051777750819308965,0.0
281,-0.027662612432464612,0.0
282,-0.1555021531761558,0.0
283,0.017655381752801475,0.0
284,2.5833991375385854,0.0
285,6.834475099995904,0.0
286,-1.9370503977367834,0.0
287,0.15473217714422097,0.0
288,0.0179880070068012,0.0
289,-0.0932845744553755,0.0
290,-0.021632203565690736,0.0
291,-0.05117227424487821,0.0
292,0.02385727134195931,0.0
293,-0.01047224441764002,0.0
294,0.039982530843916834,0.0
295,-0.09007796047786636,0.0
296,0.03106450346644785,0.0
297,-0.10409568475311892,0.0
298,-0.028877453329471864,0.0
299,-0.12562991983433047,0.0
300,0.14512706207344608,0.0
301,4.611102088513078,0.0
302,4.866139966466724,0.0
303,-3.039118945436228,0.0
304,1.5290384185870507,0.0
305,-0.7756189011892769,0.0
306,0.26508257500292565,0.0
307,-0.13088188897296915,0.0
308,0.08843405053417844,0.0
309,0.001977525935223815,0.0
310,0.009927535630690865,0.0
311,-0.002946462739201592,0.0
312,-0.037216343070266875,0.0
313,0.14315853612609855,0.0
314,-0.007204497578934566,0.0
315,0.05316095843553258,0.0
316,0.04651745830234876,0.0
317,1.1317147213178134,0.0
318,6.43611975605871,0.0
319,1.4641074657024662,0.0
320,-1.9824003882832428,0.0
321,1.2569432371040679,0.0
322,-0.6923286601225979,0.0
323,0.12807397958544572,0.0
324,-0.1060104293529178,0.0
325,-0.016365348246420053,0.0
326,0.029306669656358638,0.0
327,-0.03183782439558906,0.0
328,-0.014659780733270225,0.0
329,-0.024734942584585643,0.0
330,0.05686748838792489,0.0
331,-0.059056549412498716,0.0
332,0.041468514859599986,0.0
333,0.132415759237487,0.0
334,2.4990644254429415,0.0
335,6.878278914765504,0.0
336,-1.8679779920209654,0.0
337,0.2757449097160712,0.0
338,0.11970284156776193,0.0
339,0.0028997247958156766,0.0
340,0.030481290750454845,0.0
341,-0.11320544982020843,0.0
342,0.14138863948807934,0.0
343,0.04264068804503622,0.0
344,-0.029187643086385967,0.0
345,0.04505792856746427,0.0
346,0.13319401487295177,0.0
347,0.03883300369292205,0.0
348,0.01806341574038531,0.0
349,0.03849150688316669,0.0
350,0.32822173835286,0.0
351,4.7051456480019285,0.0
352,4.913445812796348,0.0
353,-2.986316178152234,0.0
354,1.5730927275344446,0.0
355,-0.6708711422107397,0.0
356,0.3038629452423649,0.0
357,-0.050440892070911736,0.0
358,0.07831642312250181,0.0
359,-0.021884730947444073,0.0
360,-0.011959505725388692,0.0
361,0.05408079856307795,0.0
362,0.07028449561854691,0.0
363,-0.009615127114990662,0.0
364,-0.05255434680857323,0.0
365,-0.042797951704365476,0.0
366,0.03702705793286695,0.0
367,1.1303558572050028,0.0
368,6.5302444572301885,0.0
369,1.4291173290973809,0.0
370,-1.8310159078992172,0.0
371,1.288111976697783,0.0
372,-0.5551679129897271,0.0
373,0.267449803183164,0.0
374,-0.011365301838622548,0.0
375,0.10965823201539651,0.0
376,-0.019725449940147827,0.0
377,0.04209924411572508,0.0
378,0.09777151384867581,0.0
379,-0.013090208924949241,0.0
380,0.10950384671880446,0.0
381,0.03773958700060012,0.0
382,0.038866415674087676,0.0
383,0.09935338173460309,0.0
384,2.6612573347283095,0.0
385,6.913800144161613,0.0
386,-1.7974774415748165,0.0
387,0.28582679705503256,0.0
388,0.17786664797984772,0.0
389,-0.03172979608020783,0.0
390,0.05535018162356506,0.0
391,0.0004980194637251752,0.0
392,0.10463952061683296,0.0
393,0.048477177097131556,0.0
394,-0.008084554177891563,0.0
395,0.0390900829438893,0.0
396,0.0884972246885308,0.0
397,0.06093859945387184,0.0
398,0.13360077505337248,0.0
399,0.058219708845930904,0.0
400,0.34472807439579234,0.0
401,4.746128431824549,0.0
402,4.957506399463525,0.0
403,-2.845817776937843,0.0
404,1.6382201960824645,0.0
405,-0.7186161073266698,0.0
406,0.37830453679449516,0.0
407,0.06702955977282588,0.0
408,0.18328049503086608,0.0
409,0.12623288734450072,0.0
410,0.11015208256303241,0.0
411,0.11938584276449288,0.0
412,0.07819821429070359,0.0
413,0.13844071372247363,0.0
414,0.05477306936797076,0.0
415,0.0399719279591695,0.0
416,0.05815734970270825,0.0
417,1.13714809723238,0.0
418,6.628831071675224,0.0
419,1.4697283658621143,0.0
420,-1.7974217680945777,0.0
421,1.1830811253745779,0.0
422,-0.4670129857812753,0.0
423,0.3552342786534472,0.0
424,-0.02675742882655581,0.0
425,0.1309733601021891,0.0
426,0.08977686833116735,0.0
427,0.032269040827999154,0.0
428,0.09659743818050401,0.0
429,0.12500587514709183,0.0
430,0.1729653384633752,0.0
431,0.1440367283670836,0.0
432,0.11905573914844914,0.0
433,0.11120747910570157,0.0
434,2.7586262702354154,0.0
435,6.968074887264642,0.0
436,-1.7803256444087339,0.0
437,0.33427383615223977,0.0
438,0.20258743899115927,0.0
439,0.02113175966218947,0.0
440,0.12385074720194272,0.0
441,0.16117991457546638,0.0
442,0.12658404426780656,0.0
443,0.045154239331460004,0.0
444,0.06466895581303675,0.0
445,0.10872948492207671,0.0
446,-0.02754215853126052,0.0
447,0.1321597466843739,0.0
448,0.15083839818541095,0.0
449,0.1249987562380484,0.0
450,0.32637103673397605,0.0
451,4.698735324943166,0.0
452,4.949438325526505,0.0
453,-2.889838690907469,0.0
454,1.6103715284419715,0.0
455,-0.6228991745328457,0.0
456,0.35554315610081744,0.0
457,-0.03539373826583951,0.0
458,0.1485840790388183,0.0
459,0.009911081764733258,0.0
460,0.11855562579113144,0.0
461,0.056581022060576164,0.0
462,0.0643095045406224,0.0
463,0.07013851679138415,0.0
464,0.13679000160592597,0.0
465,0.12569742848678056,0.0
466,0.03654806404882939,0.0
467,1.1315198242147915,0.0
468,6.703824864627325,0.0
469,1.4722224053381217,0.0
470,-1.7418311245021303,0.0
471,1.2706215855576226,0.0
472,-0.4409180292751925,0.0
473,0.40588686462412615,0.0
474,0.02346118069333497,0.0
475,0.06639573450553082,0.0
476,0.21155350737058914,0.0
477,0.10010674099470451,0.0
478,0.13563836492114206,0.0
479,0.179895298357919,0.0
480,0.02119120568250868,0.0
481,0.07741496484502075,0.0
482,0.09877967879371133,0.0
483,0.11748796319645116,0.0
484,2.6002784383009607,0.0
485,6.890409775226292,0.0
486,-1.877708074388894,0.0
487,0.3427207555456308,0.0
488,0.04531335218565695,0.0
489,0.035498419136376545,0.0
490,0.07643672532703197,0.0
491,0.013661443956449935,0.0
492,0.009952038913733974,0.0
493,0.10609284767656692,0.0
494,0.051543682478055866,0.0
495,0.03877478683804786,0.0
496,0.08287085763036603,0.0
497,0.013110362234798764,0.0
498,0.13784551113527113,0.0
499,0.11354290476627946,0.0
500,0.40074778062244104,0.0
501,4.796029344322141,0.0
502,4.878402307514356,0.0
503,-2.8869715816936337,0.0
504,1.6398419328549823,0.0
505,-0.5821313116235902,0.0
506,0.38178278929254605,0.0
507,-0.04603366052297958,0.0
508,0.10788425929409329,0.0
509,0.05535148559829253,0.0
510,0.10558461172527246,0.0
511,0.10879706326137073,0.0
512,0.10234941318151114,0.0
513,0.005748183568685686,0.0
514,-0.004188633049062196,0.0
515,0.12582570218193972,0.0
516,0.016136380209179887,0.0
517,1.118638402447237,0.0
518,6.645741881862436,0.0
519,1.3777505786364075,0.0
520,-1.7435876615007677,0.0
521,1.2182161495770183,0.0
522,-0.4937263233114514,0.0
523,0.279698170078704,0.0
524,0.006083132363587124,0.0
525,0.023540445702441154,0.0
526,0.08224962303700406,0.0
527,0.013652565807939776,0.0
528,-0.04093638626008107,0.0
529,0.03481266935297648,0.0
530,-0.0371570226024917,0.0
531,0.0991236092016193,0.0
532,0.07603753471722667,0.0
533,0.131467871142681,0.0
534,2.712665251775289,0.0
535,6.887377508983824,0.0
536,-1.9274921485549712,0.0
537,0.3504359146708793,0.0
538,0.15776721411119976,0.0
539,0.010160614706222976,0.0
540,0.11163235375574417,0.0
541,0.10292740235261193,0.0
542,0.08602970643643836,0.0
543,0.05550324818264123,0.0
544,0.0886091248058181,0.0
545,0.07464459432422738,0.0
546,0.09620438956268754,0.0
547,0.07515305992177986,0.0
548,0.07659392511806784,0.0
549,0.11246216397821923,0.0
550,0.41513686807940836,0.0
551,4.825414524956004,0.0
552,4.887342090522737,0.0
553,-2.9247655599003353,0.0
554,1.6372615102186532,0.0
555,-0.5959786522923035,0.0
556,0.3389821588188837,0.0
557,-0.03980686000334791,0.0
558,0.05414789585878413,0.0
559,0.09227651906133812,0.0
560,0.05316891194542464,0.0
561,0.01638577632325222,0.0
562,0.08345074086826462,0.0
563,0.12532501130958604,0.0
564,0.13265244335665377,0.0
565,0.08623622765303254,0.0
566,0.053193736473979916,0.0
567,1.0994194576363967,0.0
568,6.60775722687764,0.0
569,1.2998981401240757,0.0
570,-1.800535484986274,0.0
571,1.2212468173353894,0.0
572,-0.5125620979010853,0.0
573,0.3432631339154911,0.0
574,0.007718761880411276,0.0
575,-0.007335155043045133,0.0
576,0.0006083499141681242,0.0
577,0.12932477817141227,0.0
578,0.11376117460104311,0.0
579,0.03870204093823862,0.0
580,0.09566301780405095,0.0
581,0.09444181738717493,0.0
582,0.07681806320762637,0.0
583,0.14765441137347093,0.0
584,2.651785890945909,0.0
585,6.785714040674221,0.0
586,-1.9963021153739646,0.0
587,0.3037175834609029,0.0
588,0.15782259931072695,0.0
589,-0.0022556711726642517,0.0
590,0.09508460391214314,0.0
591,0.03762607299157736,0.0
592,-7.075481472143888e-05,0.0
593,-0.049278048537419496,0.0
594,0.012555229670490844,0.0
595,0.05648708252642574,0.0
596,0.13207946307676752,0.0
597,0.07573744918214421,0.0
598,0.04570768022865323,0.0
599,-0.008449990743236033,0.0
600,0.34822895988049957,0.0
601,4.771625734884035,0.0
602,4.8176133063662006,0.0
603,-2.9759259588026126,0.0
604,1.52731280845184,0.0
605,-0.729375284442612,0.0
606,0.31738785359903066,0.0
607,-0.056765418303575434,0.0
608,0.044499318641460194,0.0
609,-0.029657571616500983,0.0
610,0.012295287746547656,0.0
611,0.023590904444443096,0.0
612,0.07628744127906822,0.0
613,0.0135988772123013,0.0
614,0.07149432309511426,0.0
615,0.08118774039027302,0.0
616,0.03564548159101605,0.0
617,1.1424465408433702,0.0
618,6.626040291822666,0.0
619,1.3252346640664956,0.0
620,-1.7654857948269287,0.0
621,1.1771932628184323,0.0
622,-0.5709198091679962,0.0
623,0.33323646636394655,0.0
624,-0.09695195629283589,0.0
625,0.01955501702873836,0.0
626,0.08073777245218881,0.0
627,0.07115143962311737,0.0
628,0.04957111418053061,0.0
629,0.04322795473280521,0.0
630,-0.03607264096327964,0.0
631,0.06676119631892108,0.0
632,0.023951740645719997,0.0
633,0.025146894323283916,0.0
634,2.5714786035018573,0.0
635,6.811595921114161,0.0
636,-1.9311349001989961,0.0
637,0.2921016439057106,0.0
638,0.026682100892262847,0.0
639,-0.18918102646704762,0.0
640,0.014812457687038476,0.0
641,-0.111018159397033,0.0
642,0.07156134954505824,0.0
643,-0.021770234947161064,0.0
644,-0.11691282521167075,0.0
645,0.10864296396207004,0.0
646,0.04963774111361228,0.0
647,0.047305395573036736,0.0
648,-0.016032747686260805,0.0
649,-0.020941731426823082,0.0
650,0.3147623396319711,0.0
651,4.711960954821496,0.0
652,4.7679864104605025,0.0
653,-3.0332701255067818,0.0
654,1.549490823855758,0.0
655,-0.715698798000031,0.0
656,0.23773207088937226,0.0
657,-0.07831129145637396,0.0
658,-0.03627983010060524,0.0
659,-0.06379165013930045,0.0
660,0.03241521408033805,0.0
661,-0.05588089902154905,0.0
662,-0.08972973957756503,0.0
663,-0.025907210548761887,0.0
664,-0.13648300633353694,0.0
665,-0.06403462518953491,0.0
666,-0.04870341325659151,0.0
667,1.1092885314555134,0.0
668,6.3494455892883295,0.0
669,1.2558979394101715,0.0
670,-1.8875318546914996,0.0
671,1.0764809800921398,0.0
672,-0.6405381469029728,0.0
673,0.16288554069275704,0.0
674,-0.2081789701212916,0.0
675,-0.05077649532472392,0.0
676,0.004762928748267739,0.0
677,-0.060983605970037505,0.0
678,-0.07852957758722971,0.0
679,-0.13237407348997443,0.0
680,-0.0635689919268285,0.0
681,-0.0654612926046073,0.0
682,0.06492187068637137,0.0
683,0.02443621689501991,0.0
684,2.5671724735712615,0.0
685,6.709858179763705,0.0
686,-2.001867541758847,0.0
687,0.23360187741375477,0.0
688,0.034151152359709044,0.0
689,-0.09811267056912126,0.0
690,-0.0701256560297494,0.0
691,-0.05637546176050057,0.0
692,-0.046896931457947856,0.0
693,-0.06136594863509694,0.0
694,-0.07871877333091373,0.0
695,-0.0352255762765107,0.0
696,-0.11184430802178554,0.0
697,-0.02758344794524333,0.0
698,0.018890116858611056,0.0
699,-0.1703848381630259,0.0
700,0.1929631002848171,0.0
701,4.775725581384796,0.0
702,4.624214469643457,0.0
703,-2.953327012436619,0.0
704,1.5484613319275466,0.0
705,-0.8366113803688557,0.0
706,0.2847721595970857,0.0
707,-0.23460685690160793,0.0
708,-0.026305509712372215,0.0
709,-0.14365659490400623,0.0
710,-0.04802122299649589,0.0
711,-0.028351329061341475,0.0
712,-0.02029361632166879,0.0
713,-0.10210746155692407,0.0
714,-0.06026881960181337,0.0
715,-0.17523137602863195,0.0
716,-0.028152225089909097,0.0
717,1.177829898623759,0.0
718,6.558043563276999,0.0
719,1.0830196611002394,0.0
720,-1.9221144830017436,0.0
721,1.1624290755950202,0.0
722,-0.6847463784184451,0.0
723,0.1601472938740848,0.0
724,-0.1437557996838321,0.0
725,-0.15569071453179922,0.0
726,-0.04308358927870366,0.0
727,-0.10326584468591841,0.0
728,-0.03672127143011552,0.0
729,-0.04427441841235899,0.0
730,-0.13515209490745503,0.0
731,-0.06158521615874549,0.0
732,-0.13964316041686117,0.0
733,-0.052728668833599626,0.0
734,2.5612401551018857,0.0
735,6.829741603827451,0.0
736,-1.9826790134686738,0.0
737,0.33011828976356034,0.0
738,0.03963042492857181,0.0
739,-0.058554985978707536,0.0
740,0.02106474639874928,0.0
741,-0.0070842201920376,0.0
742,0.010685340551507376,0.0
743,0.06551891579259517,0.0
744,0.030764350442954905,0.0
745,-0.060958185985321905,0.0
746,-0.058677601397799,0.0
747,-0.17796915515138528,0.0
748,-0.03678986194625729,0.0
749,-0.0750583582170108,0.0
750,0.2568097844961021,0.0
751,4.635298274865707,0.0
752,4.633028173299283,0.0
753,-3.1389311029095177,0.0
754,1.4697636724251024,0.0
755,-0.8264263955956983,0.0
756,0.1438460995794728,0.0
757,-0.20685809472527605,0.0
758,-0.09279520070088497,0.0
759,-0.03242351916787938,0.0
760,-0.08815040176574407,0.0
761,-0.06013470177313966,0.0
762,-0.08905644790142603,0.0
763,-0.06886599836758761,0.0
764,-0.12393015460743137,0.0
765,-0.00011584155715753386,0.0
766,-0.0032199444964961625,0.0
767,1.0495880093794796,0.0
768,6.544022111622257,0.0
769,1.069694982174707,0.0
770,-1.8993577586682762,0.0
771,1.1506108436549607,0.0
772,-0.6914217850768698,0.0
773,0.16846850741855296,0.0
774,-0.10587235974125611,0.0
775,-0.07133286901357382,0.0
776,-0.10953116591637496,0.0
777,-0.10943486631858183,0.0
778,-0.0775137055607325,0.0
779,-0.1191043806532101,0.0
780,-0.11111821537559154,0.0
781,-0.10356851771155785,0.0
782,-0.1256555954207102,0.0
783,-0.10852701407731277,0.0
784,2.5796148577464257,0.0
785,6.741125390523263,0.0
786,-2.142715785773439,0.0
787,0.37350005953979293,0.0
788,0.058485029185469745,0.0
789,-0.09168204727824404,0.0
790,-0.07164056506234748,0.0
791,-0.002814380390615323,0.0
792,-0.07652254550882681,0.0
793,-0.03536681995052709,0.0
794,-0.119565435235993,0.0
795,-0.03685250817363302,0.0
796,-0.0326276076051199,0.0
797,0.056951945957610835,0.0
798,0.0009354323160352456,0.0
799,0.05461419102738373,0.0
800,0.35841856038289055,0.0
801,4.83286265254622,0.0
802,4.664091109577236,0.0
803,-2.9969119135734084,0.0
804,1.527806498144934,0.0
805,-0.6493707368884487,0.0
806,0.36015098436915993,0.0
807,-0.06477590165272486,0.0
808,0.03515909512497234,0.0
809,0.07760044677137318,0.0
810,-0.015587847912297125,0.0
811,-0.05766449322761335,0.0
812,0.051953150569925916,0.0
813,0.023298447949163133,0.0
814,0.03467283130097534,0.0
815,0.03321508891148347,0.0
816,0.05565760156197847,0.0
817,1.0639635901776336,0.0
818,6.51975535113409,0.0
819,1.039799519930859,0.0
820,-1.761105435149844,0.0
821,1.1025158882021453,0.0
822,-0.5580092428248429,0.0
823,0.29144312155353136,0.0
824,-0.08904324456644888,0.0
825,-0.009572158421460041,0.0
826,0.00386462507930993,0.0
827,-0.024802609267860844,0.0
828,-0.03923992298901361,0.0
829,0.009971690567201052,0.0
830,-0.014482175276335297,0.0
831,-0.027929670933025084,0.0
832,-0.009349931423165267,0.0
833,0.11304105603937292,0.0
834,2.7035384442716723,0.0
835,6.771389673712813,0.0
836,-1.959465476160956,0.0
837,0.3498841744588478,0.0
838,0.04338407097173554,0.0
839,-0.05498635657218348,0.0
840,0.06492813264976782,0.0
841,0.03912824950556798,0.0
842,0.08306285755138301,0.0
843,0.0011175170482124325,0.0
844,0.014630955229398949,0.0
845,-0.006142726387944039,0.0
846,-0.0714955452937982,0.0
847,-0.042485721568163416,0.0
848,0.05412933266072012,0.0
849,0.04929944340352518,0.0
850,0.35440949343705624,0.0
851,4.890208938151601,0.0
852,4.701104207376043,0.0
853,-2.9420816135178134,0.0
854,1.5599840504653784,0.0
855,-0.7270982796440912,0.0
856,0.40495966067313277,0.0
857,-0.05037079410993428,0.0
858,0.09050299091310404,0.0
859,0.10177510973640466,0.0
860,0.07624602461718219,0.0
861,0.02534895941530681,0.0
862,0.06971591708241826,0.0
863,0.018819140271001178,0.0
864,0.1200764236958464,0.0
865,0.03528051711551358,0.0
866,0.04711484944027497,0.0
867,1.104442096158218,0.0
868,6.615527074510307,0.0
869,1.1102846928241754,0.0
870,-1.6345197392435704,0.0
871,1.1134684199545781,0.0
872,-0.5733993320647802,0.0
873,0.2719001831507994,0.0
874,-0.11346201733478764,0.0
875,-0.00832058947673664,0.0
876,-0.09472531971249637,0.0
877,0.010826080745782698,0.0
878,-0.024769549991862413,0.0
879,-0.0034946682616297,0.0
880,0.012004960963083226,0.0
881,0.011209231338572484,0.0
882,0.01812536433749317,0.0
883,0.10086063296350013,0.0
884,2.7657675653387654,0.0
885,6.755193719177663,0.0
886,-2.001389384096471,0.0
887,0.4774259591886424,0.0
888,0.05918200360636665,0.0
889,-0.055879401318933875,0.0
890,0.00402408983289998,0.0
891,0.05574618558265024,0.0
892,0.09393181806085862,0.0
893,0.09164998736123314,0.0
894,0.03441709119719828,0.0
895,-0.02366525498101874,0.0
896,0.07493203505229312,0.0
897,0.03618145578719291,0.0
898,0.058962479774115506,0.0
899,0.0035115808827995837,0.0
900,0.37279632811556584,0.0
901,4.906334469696703,0.0
902,4.676122391990848,0.0
903,-3.0078202419313915,0.0
904,1.5875486008788708,0.0
905,-0.8352994701265042,0.0
906,0.29931078753291723,0.0
907,-0.09502391615959091,0.0
908,0.059059800162064864,0.0
909,-0.07076171635947343,0.0
910,0.035238381601123796,0.0
911,-0.03554888399409833,0.0
912,-0.030602689862112068,0.0
913,-0.038407434678255525,0.0
914,0.01686754088260592,0.0
915,-0.10250931480126363,0.0
916,-0.05879407548586374,0.0
917,1.068900408871352,0.0
918,6.557170219776505,0.0
919,1.025379826821235,0.0
920,-1.8350848027607092,0.0
921,1.1360831182266737,0.0
922,-0.6685411592699606,0.0
923,0.25280490714213977,0.0
924,-0.11187374295821312,0.0
925,-0.005078097295685155,0.0
926,0.0017472285897138715,0.0
927,-0.02245202247363207,0.0
928,-0.0030674778769423858,0.0
929,0.004913338863134596,0.0
930,-0.0006514894524279798,0.0
931,0.049079564452465994,0.0
932,0.04672178538271371,0.0
933,0.07309767320194083,0.0
934,2.687728117576487,0.0
935,6.877770104953638,0.0
936,-2.1393903199774766,0.0
937,0.39371263573839654,0.0
938,0.08583712887597181,0.0
939,-0.018469645711920554,0.0
940,0.0012752849644981148,0.0
941,0.05251504398737472,0.0
942,0.08977331692895259,0.0
943,0.07934148441427616,0.0
944,-0.017445175567309776,0.0
945,-0.03847066285949006,0.0
946,0.08569351714378365,0.0
947,0.10810549159196944,0.0
948,-0.010485664252080862,0.0
949,-0.09944057718185118,0.0
950,0.3004367368546098,0.0
951,4.792390269014931,0.0
952,4.58817136213754,0.0
953,-2.958979639375313,0.0
954,1.580147692096283,0.0
955,-0.8106457488707761,0.0
956,0.3480883919213441,0.0
957,0.058329121962374275,0.0
958,0.03399599158587141,0.0
959,0.0726080600373664,0.0
960,0.0886370101669597,0.0
961,0.03566127443554916,0.0
962,0.07215920686140732,0.0
963,0.09854075140114432,0.0
964,0.1889969473313538,0.0
965,0.0497355398986875,0.0
966,0.002080074931131312,0.0
967,1.1807195828202033,0.0
968,6.776233441479527,0.0
969,1.2123532482626878,0.0
970,-1.7241340944187356,0.0
971,1.2266554303694557,0.0
972,-0.4179803160296628,0.0
973,0.30934759811616724,0.0
974,-0.10039897637292805,0.0
975,0.023728875515113833,0.0
976,0.047676030033034604,0.0
977,-0.06537899255658357,0.0
978,-0.0334122642757873,0.0
979,-0.013529373222420133,0.0
980,0.0230952007295257,0.0
981,-0.03222563979092735,0.0
982,0.08237204477301435,0.0
983,0.12175824255787579,0.0
984,2.7003269367261424,0.0
985,6.711144705007613,0.0
986,-2.020146353990628,0.0
987,0.4240324501486678,0.0
988,0.02496045015029306,0.0
989,-0.06440106927148562,0.0
990,0.002263858028762851,0.0
991,-0.058561271510728354,0.0
992,-0.06750168356352945,0.0
993,-0.030028282682806173,0.0
994,-0.08935827193586424,0.0
995,0.056067332269931006,0.0
996,0.08963923988025467,0.0
997,0.015496301812937164,0.0
998,0.09765893516237995,0.0
999,0.07534758709516964,0.0
1000,0.31705416493381444,0.0
1001,4.910273932766007,0.0
1002,4.488176432549602,0.0
1003,-2.9847199448768906,0.0
1004,1.6868740258411175,0.0
1005,-0.7860883309487972,0.0
1006,0.378854374383913,0.0
1007,-0.05092832992047471,0.0
1008,-0.0023402514717559414,0.0
1009,-0.06452782612002844,0.0
1010,0.05677095191621243,0.0
1011,0.03960283566389211,0.0
1012,0.005534210764078389,0.0
1013,0.08939308229513207,0.0
1014,-0.04783346052536722,0.0
1015,0.046185166135793765,0.0
1016,0.08079583106063201,0.0
1017,1.0756872966923403,0.0
1018,6.603539318853212,0.0
1019,1.116966968583563,0.0
1020,-1.7269471716777196,0.0
1021,1.1229049532368809,0.0
1022,-0.6057327635099539,0.0
1023,0.2576977228518347,0.0
1024,-0.009031470232422331,0.0
1025,0.11510323422449463,0.0
1026,0.05059018230451286,0.0
1027,-0.07832206230715419,0.0
1028,0.08430179037349006,0.0
1029,0.007976882230903252,0.0
1030,0.016090584678571062,0.0
1031,0.023377890968140073,0.0
1032,0.038397027940541215,0.0
1033,0.12972572963074297,0.0
1034,2.7077729935603014,0.0
1035,6.815839133996012,0.0
1036,-2.0934691838652686,0.0
1037,0.5211303189539892,0.0
1038,0.09014926146840785,0.0
1039,0.06593898394608613,0.0
1040,0.03300825114714995,0.0
1041,0.11700942554537211,0.0
1042,0.01728605478178545,0.0
1043,0.09456232134520073,0.0
1044,0.08298667320955717,0.0
1045,0.14229566449086586,0.0
1046,0.0936138605891399,0.0
1047,0.04390937688244234,0.0
1048,-0.02736702311511687,0.0
1049,0.016062400811731513,0.0
1050,0.3170140380488918,0.0
1051,4.9254236977338035,0.0
1052,4.683409097418848,0.0
1053,-2.9107587689006147,0.0
1054,1.662436837454706,0.0
1055,-0.7450203311291683,0.0
1056,0.38078053728560224,0.0
1057,-0.09504281645301324,0.0
1058,0.09173306477222215,0.0
1059,0.06799657109563788,0.0
1060,-0.03978410794260309,0.0
1061,-0.013569844760213993,0.0
1062,0.022502539719692218,0.0
1063,0.14212784024485295,0.0
1064,-0.010187716717454113,0.0
1065,0.04421275122174523,0.0
1066,0.0693060865269104,0.0
1067,1.172400180612631,0.0
1068,6.650934146414154,0.0
1069,1.1095800001074076,0.0
1070,-1.6823229866576968,0.0
1071,1.1925930991913327,0.0
1072,-0.5474016553856323,0.0
1073,0.2586970286042739,0.0
1074,-0.03169372215018001,0.0
1075,0.10059560652870025,0.0
1076,-0.0007148404577806342,0.0
1077,0.055251273535014064,0.0
1078,0.10737790120591406,0.0
1079,0.08604725344160861,0.0
1080,0.026972783254507002,0.0
1081,-0.006153584981020102,0.0
1082,0.061513052293555415,0.0
1083,0.15855460750870654,0.0
1084,2.774355277452975,0.0
1085,6.755590474293987,0.0
1086,-2.1108044898490834,0.0
1087,0.5578579928250019,0.0
1088,0.07930444428433583,0.0
1089,0.08541666942690229,0.0
1090,0.14788512887040295,0.0
1091,0.17595712864151555,0.0
1092,0.1956746437029591,0.0
1093,0.17209885660283317,0.0
1094,0.07836000673737024,0.0
1095,0.13079322729079815,0.0
1096,0.17127552775297394,0.0
1097,0.06705380918684477,0.0
1098,0.09064283914476001,0.0
1099,-0.024839202386914443,0.0
1100,0.38707101786684356,0.0
1101,4.9223843429093375,0.0
1102,4.58450655482816,0.0
1103,-3.040506967002543,0.0
1104,1.604078432635848,0.0
1105,-0.6834902113896978,0.0
1106,0.31174582420653296,0.0
1107,0.010867582225252956,0.0
1108,0.10231794383841769,0.0
1109,0.017890828325156594,0.0
1110,0.010458394645307095,0.0
1111,0.08908214465642822,0.0
1112,0.04593764056557766,0.0
1113,0.08627525331265944,0.0
1114,0.14561996102718416,0.0
1115,0.03165037364100492,0.0
1116,0.04046411610675142,0.0
1117,1.2823361785804894,0.0
1118,6.723076913459099,0.0
1119,1.0612620419808876,0.0
1120,-1.609921032322611,0.0
1121,1.2526239504309202,0.0
1122,-0.48505485425352557,0.0
1123,0.32033099162773804,0.0
1124,-0.007308941571852054,0.0
1125,0.15346672322495064,0.0
1126,0.0813121875671067,0.0
1127,0.05945563862283304,0.0
1128,0.03319551736070116,0.0
1129,0.07155877986351025,0.0
1130,0.02360011850933872,0.0
1131,0.03928862681282953,0.0
1132,0.008087372267856392,0.0
1133,0.18358215600531835,0.0
1134,2.8307998076836967,0.0
1135,6.839514062005091,0.0
1136,-2.08859553242508,0.0
1137,0.5126639466724134,0.0
1138,0.06225181799474943,0.0
1139,0.04578957678523385,0.0
1140,0.009609281741582529,0.0
1141,0.051172372104009295,0.0
1142,-0.06826896709957522,0.0
1143,-0.018259223721395004,0.0
1144,-0.0024466962717934818,0.0
1145,0.012511990071016443,0.0
1146,0.1299333368122677,0.0
1147,0.025372584011683852,0.0
1148,0.0366190338154845,0.0
1149,-0.009720938714054838,0.0
1150,0.37184535021059606,0.0
1151,4.830960195193315,0.0
1152,4.623245398442242,0.0
1153,-2.929112356651564,0.0
1154,1.5126113963032455,0.0
1155,-0.7359265510880525,0.0
1156,0.3288295361288676,0.0
1157,-0.05865874009910294,0.0
1158,0.11085284603290349,0.0
1159,0.00938246945432988,0.0
1160,0.06570294113994982,0.0
1161,-0.08960176649623308,0.0
1162,-0.0671904548195925,0.0
1163,0.030512699931042286,0.0
1164,-0.059075097443777994,0.0
1165,0.09920142528157301,0.0
1166,0.009946200792507884,0.0
1167,1.312371629458252,0.0
1168,6.653391428615022,0.0
1169,1.0887950562975781,0.0
1170,-1.714830449663743,0.0
1171,1.0380381612446568,0.0
1172,-0.5101618702667656,0.0
1173,0.2850655515245054,0.0
1174,-0.08081216806126643,0.0
1175,0.0611238180615771,0.0
1176,-0.0022349349556251077,0.0
1177,0.02656048941781169,0.0
1178,0.0707222577074782,0.0
1179,-0.024260515034201575,0.0
1180,0.03646571077146546,0.0
1181,0.14937191822509166,0.0
1182,-0.018037246091231772,0.0
1183,0.046786683202433024,0.0
1184,2.76335273973701,0.0
1185,6.786475757836216,0.0
1186,-2.113780843126986,0.0
1187,0.5220627096018252,0.0
1188,-0.009174163139757595,0.0
1189,-0.02021101532067945,0.0
1190,-0.04554195913933286,0.0
1191,0.028594753676028713,0.0
1192,-0.03227773407534932,0.0
1193,-0.021228079752697478,0.0
1194,-0.010896888984090875,0.0
1195,-0.013395399650971716,0.0
1196,0.019009157530990632,0.0
1197,-0.08406476590632615,0.0
1198,0.07841504752552754,0.0
1199,0.06316311124072606,0.0
1200,0.3835074189615485,0.0
1201,4.863635377637204,0.0
1202,4.5186800855705345,0.0
1203,-2.9287346239966823,0.0
1204,1.5789955176117247,0.0
1205,-0.6411134037276849,0.0
1206,0.25592954940545565,0.0
1207,-0.08178698530555233,0.0
1208,-0.0138914532200973,0.0
1209,-0.1041636144990778,0.0
1210,0.03658159528809382,0.0
1211,-0.03138414910541496,0.0
1212,0.10524484263294023,0.0
1213,-0.002903792088419247,0.0
1214,-0.0074728441176551055,0.0
1215,-0.06563253682395438,0.0
1216,-0.018714783496384006,0.0
1217,1.204533458329015,0.0
1218,6.615223529751641,0.0
1219,0.8968633936060508,0.0
1220,-1.6377436353250596,0.0
1221,1.0198901469406016,0.0
1222,-0.4618692969293994,0.0
1223,0.240517336489082,0.0
1224,-0.12594755514859154,0.0
1225,0.030258520390948843,0.0
1226,-0.04789828797301148,0.0
1227,0.06995785335747871,0.0
1228,0.07839766175856439,0.0
1229,0.015224251051365222,0.0
1230,0.015406905617473106,0.0
1231,-0.08875797771292901,0.0
1232,0.00524160261328871,0.0
1233,-0.01539574504824203,0.0
1234,2.728684246756962,0.0
1235,6.716938497400979,0.0
1236,-2.2442341639608427,0.0
1237,0.45328150414260643,0.0
1238,-0.11278123616838587,0.0
1239,-0.021538683010666484,0.0
1240,-0.08339960979823105,0.0
1241,-0.03831565519365856,0.0
1242,-0.10309885835410257,0.0
1243,0.027125859195860497,0.0
1244,0.00234469890348548,0.0
1245,0.02774099989312382,0.0
1246,-0.03727606935811635,0.0
1247,-0.0754987754041611,0.0
1248,0.018774893767843026,0.0
1249,0.011695540569187153,0.0
1250,0.34065134476477105,0.0
1251,4.896820180132147,0.0
1252,4.506660936931333,0.0
1253,-2.9071620758882037,0.0
1254,1.5506185519491889,0.0
1255,-0.822673332030423,0.0
1256,0.3042762475958368,0.0
1257,-0.15666164550689948,0.0
1258,-0.004984232794972891,0.0
1259,-0.15105417145974032,0.0
1260,-0.07495835044630261,0.0
1261,0.07372132804138137,0.0
1262,0.041597827246795505,0.0
1263,-0.001404385495663081,0.0
1264,-0.005594921254540711,0.0
1265,0.04721918099654625,0.0
1266,-0.012078734674573578,0.0
1267,1.056732271146711,0.0
1268,6.605451351344421,0.0
1269,0.9590600667324356,0.0
1270,-1.5814605000190893,0.0
1271,1.075048272848429,0.0
1272,-0.6012585653440606,0.0
1273,0.2943297894920386,0.0
1274,-0.06295707550993224,0.0
1275,-0.054377521092695044,0.0
1276,0.017600894147100782,0.0
1277,-0.08317151002245327,0.0
1278,-0.03806108857285381,0.0
1279,0.059040216555006506,0.0
1280,0.017881661988325283,0.0
1281,-0.05623027318025923,0.0
1282,-0.04669335143711974,0.0
1283,0.07888722507635265,0.0
1284,2.762128867888203,0.0
1285,6.75987205998735,0.0
1286,-2.1489820269445343,0.0
1287,0.5483387172887155,0.0
1288,0.0593440855469308,0.0
1289,0.11382904527836316,0.0
1290,0.09051281817945633,0.0
1291,0.07789690649581099,0.0
1292,0.022963008040937004,0.0
1293,-0.022290968393737037,0.0
1294,-0.003439162149976388,0.0
1295,-0.021640209575587176,0.0
1296,0.039499798526597595,0.0
1297,0.10258667201399477,0.0
1298,0.03176673732584009,0.0
1299,-0.09040013160314642,0.0
1300,0.4139043603822674,0.0
1301,4.986737463710216,0.0
1302,4.464695946048532,0.0
1303,-2.8423753285374618,0.0
1304,1.5431681952099594,0.0
1305,-0.7733742499209998,0.0
1306,0.341122395404366,0.0
1307,-0.036764546673303325,0.0
1308,-0.012903579875821754,0.0
1309,0.03876627948421791,0.0
1310,0.03400794468679543,0.0
1311,0.14878569154102186,0.0
1312,0.03177108365995621,0.0
1313,0.10565853988844902,0.0
1314,0.08795878833581072,0.0
1315,0.024210680538351147,0.0
1316,-0.010246292925701807,0.0
1317,1.2306096065098069,0.0
1318,6.690417274319566,0.0
1319,0.912222562068507,0.0
1320,-1.6704371056573557,0.0
1321,1.0913657319224284,0.0
1322,-0.6310125231793867,0.0
1323,0.2376404290857096,0.0
1324,-0.022693178964495797,0.0
1325,-0.06233611194302234,0.0
1326,0.023255740418194594,0.0
1327,-0.014009509121339244,0.0
1328,0.10040262101207335,0.0
1329,-0.040987793685120504,0.0
1330,-0.0777014767696543,0.0
1331,-0.06720614322197574,0.0
1332,0.04863558749159108,0.0
1333,0.0756500381088553,0.0
1334,2.77312536283561,0.0
1335,6.712482125954633,0.0
1336,-2.2236079939711857,0.0
1337,0.4594742145484417,0.0
1338,-0.0011420876939655673,0.0
1339,-0.002711026313608377,0.0
1340,0.12943229467730055,0.0
1341,0.09756172996420343,0.0
1342,0.06374939475894567,0.0
1343,0.017594325057998655,0.0
1344,-0.014626605558451487,0.0
1345,0.05700556775079246,0.0
1346,0.09050311801328367,0.0
1347,0.055142602647753294,0.0
1348,0.047705492060565804,0.0
1349,-0.004670795043351664,0.0
1350,0.32261765591931213,0.0
1351,5.0047562805709,0.0
1352,4.362427978991212,0.0
1353,-2.8902877752711214,0.0
1354,1.64191743693732,0.0
1355,-0.7240350111326553,0.0
1356,0.4000453560499048,0.0
1357,-0.07264010289279378,0.0
1358,0.10597960489213337,0.0
1359,0.009623904189996611,0.0
1360,0.09706608823685886,0.0
1361,0.02665810388497179,0.0
1362,0.10342719349893023,0.0
1363,0.0938190401426181,0.0
1364,0.12215596466511278,0.0
1365,0.039078285473762284,0.0
1366,0.061624362942088146,0.0
1367,1.1253686057415357,0.0
1368,6.74200963223778,0.0
1369,0.9735320275855631,0.0
1370,-1.6015994845881936,0.0
1371,1.2474104046376018,0.0
1372,-0.46475694895826297,0.0
1373,0.15888416058907023,0.0
1374,0.013627052894126905,0.0
1375,0.16497239603408592,0.0
1376,0.09652382724958952,0.0
1377,0.04829980769911041,0.0
1378,-0.013334505451564366,0.0
1379,-0.0979916331832252,0.0
1380,-0.011968688616662546,0.0
1381,-0.014129337939066842,0.0
1382,0.020254987826839536,0.0
1383,0.07658145425716843,0.0
1384,2.807031675570286,0.0
1385,6.733680672059634,0.0
1386,-2.1488062138321737,0.0
1387,0.6137625726638218,0.0
1388,-0.07846225528759793,0.0
1389,0.025711492882488578,0.0
1390,-0.08307046253769959,0.0
1391,0.008509454044033365,0.0
1392,0.01564626690279241,0.0
1393,-0.06526752439819733,0.0
1394,0.06900964738034111,0.0
1395,0.04781293654151393,0.0
1396,-0.00017446190747879772,0.0
1397,0.02237389646620128,0.0
1398,0.02880882861038236,0.0
1399,0.010515131108801994,0.0
1400,0.4142643022548753,0.0
1401,5.031774720028687,0.0
1402,4.527122106519168,0.0
1403,-2.8756461682931582,0.0
1404,1.5426717108248984,0.0
1405,-0.6716762453777635,0.0
1406,0.3771137762985967,0.0
1407,-0.05289726741084083,0.0
1408,-0.07172569191142378,0.0
1409,0.07863058092584942,0.0
1410,0.10822294352919934,0.0
1411,0.029890275609083673,0.0
1412,0.04775096103208361,0.0
1413,-0.02508211130079495,0.0
1414,0.05926822543951182,0.0
1415,0.09758531013533264,0.0
1416,0.06572091647095372,0.0
1417,1.2328866146512958,0.0
1418,6.72024254328706,0.0
1419,1.0009471274660555,0.0
1420,-1.5384046021586628,0.0
1421,1.0651764837897053,0.0
1422,-0.4957255230604341,0.0
1423,0.22865486101347415,0.0
1424,-0.10521171114720908,0.0
1425,-0.04084688844850631,0.0
1426,-0.0014219067560933274,0.0
1427,0.035854340133363895,0.0
1428,0.050153282134687754,0.0
1429,0.05209252624321287,0.0
1430,0.04856326846590709,0.0
1431,0.13643933097261496,0.0
1432,0.03312249222970769,0.0
1433,0.034221739388719585,0.0
1434,2.95227521279931,0.0
1435,6.775458002010032,0.0
1436,-2.138762601705928,0.0
1437,0.6813727326772424,0.0
1438,0.0665592044269146,0.0
1439,0.1434469434213782,0.0
1440,0.05901154525054387,0.0
1441,0.11521616818358024,0.0
1442,0.04054906738049674,0.0
1443,0.0933493279645069,0.0
1444,0.06486608915798886,0.0
1445,0.07353986627051767,0.0
1446,0.055599802127581234,0.0
1447,0.10548193589379747,0.0
1448,-0.029190234670967496,0.0
1449,-0.07288985344281318,0.0
1450,0.38395484036898864,0.0
1451,5.042263764360454,0.0
1452,4.4253772871286685,0.0
1453,-3.006079727251576,0.0
1454,1.700329500459988,0.0
1455,-0.7194194293310707,0.0
1456,0.3172761692553884,0.0
1457,-0.0712720098359846,0.0
1458,0.06585078775474901,0.0
1459,0.008434950668018328,0.0
1460,0.023711818791028728,0.0
1461,0.030510128136158162,0.0
1462,0.029813958263499765,0.0
1463,-0.10006600365339804,0.0
1464,0.14497255279624072,0.0
1465,0.05725748802421429,0.0
1466,0.024262630524136908,0.0
1467,1.335148720698835,0.0
1468,6.681928960176709,0.0
1469,0.8870965297190294,0.0
1470,-1.6324682422149905,0.0
1471,1.0051412098339858,0.0
1472,-0.5261250081330023,0.0
1473,0.3198105927945961,0.0
1474,0.0029509339776437465,0.0
1475,0.11373744934681686,0.0
1476,-0.04004053784463426,0.0
1477,0.045546282181643236,0.0
1478,0.07765188741370899,0.0
1479,-0.03448069722702845,0.0
1480,0.015060413611833058,0.0
1481,0.0211825407420728,0.0
1482,0.063048321676977,0.0
1483,0.05544348126169657,0.0
1484,2.867606583294495,0.0
1485,6.717824253215026,0.0
1486,-2.191682173175286,0.0
1487,0.6585919262071878,0.0
1488,-0.039571825451957636,0.0
1489,0.011536633099300777,0.0
1490,-0.06004626680940055,0.0
1491,0.07007811170362913,0.0
1492,0.030291996975027595,0.0
1493,-0.024011111459719313,0.0
1494,0.024613361362076015,0.0
1495,-0.011940660586890948,0.0
1496,0.030283674679057015,0.0
1497,0.0654128299582761,0.0
1498,0.02154369115320974,0.0
1499,0.03682318023565244,0.0
1500,0.3798371478614584,0.0
1501,4.951192342587263,0.0
1502,4.457308615762865,0.0
1503,-2.9011996097990695,0.0
1504,1.6396408225309185,0.0
1505,-0.7620432376144232,0.0
1506,0.4845224255157858,0.0
1507,-0.12494890555401134,0.0
1508,0.09462279637118785,0.0
1509,0.05723312334752862,0.0
1510,-0.035681579541113985,0.0
1511,-0.03353204795336129,0.0
1512,0.03573686403748795,0.0
1513,0.06634622332146078,0.0
1514,0.07560478484772858,0.0
1515,0.09645775276736768,0.0
1516,0.06004381105960477,0.0
1517,1.2919249539229822,0.0
1518,6.6916208170871,0.0
1519,0.8709137079222081,0.0
1520,-1.5400787504929678,0.0
1521,1.044177078440291,0.0
1522,-0.4502929505912999,0.0
1523,0.24713494374814055,0.0
1524,-0.1123472135174849,0.0
1525,-0.08569266796325377,0.0
1526,-0.05864052404683985,0.0
1527,-0.005391890768333264,0.0
1528,-0.026749175666686976,0.0
1529,-0.07051134025387595,0.0
1530,-0.05672908792683242,0.0
1531,0.0007512225288666685,0.0
1532,0.03718297824929187,0.0
1533,0.07228124928772837,0.0
1534,2.835230875357466,0.0
1535,6.684159713982901,0.0
1536,-2.2302409952695146,0.0
1537,0.5124573005137548,0.0
1538,-0.12291023384555655,0.0
1539,0.0029340407155681973,0.0
1540,-0.10845935830510416,0.0
1541,0.017445314128955784,0.0
1542,0.07967567571538747,0.0
1543,-0.03125305837443996,0.0
1544,-0.012336814137681396,0.0
1545,-0.04851491327911547,0.0
1546,-0.08192425912520038,0.0
1547,0.04381431284872048,0.0
1548,0.034585387452320523,0.0
1549,-0.000676061385340215,0.0
1550,0.3990452622282719,0.0
1551,5.040452600655162,0.0
1552,4.320025520789069,0.0
1553,-3.021952543032446,0.0
1554,1.5522926168008377,0.0
1555,-0.8026935081911718,0.0
1556,0.36457874984437455,0.0
1557,-0.19398110858832207,0.0
1558,0.06376650709119171,0.0
1559,-0.019978522332881218,0.0
1560,-0.05114466268102852,0.0
1561,-0.03243922200692469,0.0
1562,0.015786698751039167,0.0
1563,0.019559005461407583,0.0
1564,-0.02940644523263236,0.0
1565,0.006090818798592797,0.0
1566,0.02254816020695026,0.0
1567,1.0951625043970634,0.0
1568,6.659388071977179,0.0
1569,0.8115950493097736,0.0
1570,-1.5767993900785924,0.0
1571,1.020409423985687,0.0
1572,-0.6258814032516862,0.0
1573,0.14337538399337757,0.0
1574,-0.08878843013702631,0.0
1575,0.04093006438456315,0.0
1576,-0.03658189218382294,0.0
1577,-0.10006337584461822,0.0
1578,-0.00933438329817763,0.0
1579,-0.028194194970035627,0.0
1580,0.005604427284754861,0.0
1581,-0.06186799070642009,0.0
1582,0.014513237839980514,0.0
1583,-0.0016904070397387796,0.0
1584,2.7549094969464556,0.0
1585,6.774506788120026,0.0
1586,-2.271583157108211,0.0
1587,0.5267745125459694,0.0
1588,-0.2288532815209647,0.0
1589,0.0008527417455169578,0.0
1590,-0.13319540487254905,0.0
1591,0.06834067387001563,0.0
1592,-0.03565255172241546,0.0
1593,-0.02146653423001818,0.0
1594,0.023064422040030612,0.0
1595,0.05118982838784591,0.0
1596,0.0008230967639812382,0.0
1597,0.06438062877872004,0.0
1598,-0.10639957264607694,0.0
1599,-0.09149934056485069,0.0
1600,0.44141084235097344,0.0
1601,5.0569340371037965,0.0
1602,4.36367041384041,0.0
1603,-3.000180581656148,0.0
1604,1.4066301530898988,0.0
1605,-0.8287018902513524,0.0
1606,0.24934754968860676,0.0
1607,-0.1401996962028659,0.0
1608,-0.018623637852991717,0.0
1609,0.027924976889230332,0.0
1610,0.04742436741363852,0.0
1611,-0.12144021776372763,0.0
1612,-0.12584644451570445,0.0
1613,-0.08021113899148809,0.0
1614,-0.16219077633016543,0.0
1615,-0.08598039639729692,0.0
1616,0.007115896512522341,0.0
1617,1.0635659874904873,0.0
1618,6.598092391695352,0.0
1619,0.6981811785968178,0.0
1620,-1.4132038775647398,0.0
1621,1.0186572718247233,0.0
1622,-0.6378543732477017,0.0
1623,0.24056979847988788,0.0
1624,-0.09076791098949233,0.0
1625,0.022427040474567787,0.0
1626,-0.015624804457192745,0.0
1627,0.027033317804521194,0.0
1628,0.07904279871039495,0.0
1629,-0.0033086474111810715,0.0
1630,0.021957350564375026,0.0
1631,0.08321758792529774,0.0
1632,0.01924175337121622,0.0
1633,0.06166205298462121,0.0
1634,2.9202779224627737,0.0
1635,6.769725056537667,0.0
1636,-2.337864888986299,0.0
1637,0.6115000964076889,0.0
1638,-0.020202231023760703,0.0
1639,-0.06317362743415311,0.0
1640,-0.03685247898391645,0.0
1641,0.02541296655306642,0.0
1642,-0.049092102004392235,0.0
1643,-0.014778106327230478,0.0
1644,-0.08728158849500528,0.0
1645,-0.047534995650668675,0.0
1646,0.02111149442018302,0.0
1647,-0.05095646431357058,0.0
1648,-0.15515112134807676,0.0
1649,-0.08558092769822,0.0
1650,0.3183444570095999,0.0
1651,4.93948687621271,0.0
1652,4.254980315955738,0.0
1653,-2.9247196049169464,0.0
1654,1.5719061169000945,0.0
1655,-0.8190086988954233,0.0
1656,0.24085560656664795,0.0
1657,-0.21103482018542827,0.0
1658,0.05562516744052851,0.0
1659,-0.06330348671293948,0.0
1660,-0.09516389919998966,0.0
1661,-0.10766336707103386,0.0
1662,0.005556518757967092,0.0
1663,-0.12690635446209306,0.0
1664,-0.04784914140615926,0.0
1665,-0.1179177093538934,0.0
1666,-0.14117109345593143,0.0
1667,1.1480321858181035,0.0
1668,6.639746793130083,0.0
1669,0.6654092996099363,0.0
1670,-1.5815450211212068,0.0
1671,1.0374632765912277,0.0
1672,-0.563830792951663,0.0
1673,0.14345757702421486,0.0
1674,-0.19007000523646886,0.0
1675,-0.0821155955764436,0.0
1676,-0.07555895857620482,0.0
1677,-0.06985958001905568,0.0
1678,-0.0669757525992447,0.0
1679,-0.07219813313725534,0.0
1680,-0.06443647767267233,0.0
1681,-0.16021129705156006,0.0
1682,-0.06343422073021221,0.0
1683,-0.14687776464438415,0.0
1684,2.8205982134082914,0.0
1685,6.652906554774376,0.0
1686,-2.4404435330887053,0.0
1687,0.5722802103300445,0.0
1688,-0.19608281197622057,0.0
1689,-0.0010371249502421215,0.0
1690,-0.07248779558605675,0.0
1691,-0.06206508260319672,0.0
1692,0.00955482756930584,0.0
1693,0.0004367315247787787,0.0
1694,-0.019572381714378716,0.0
1695,-0.0006609509609323619,0.0
1696,-0.013982532760058793,0.0
1697,-0.10506986270947402,0.0
1698,-0.04116965907375346,0.0
1699,-0.08271516469039855,0.0
1700,0.24743488208650788,0.0
1701,5.0246238513276085,0.0
1702,4.327587073161849,0.0
1703,-3.031441147293797,0.0
1704,1.639406002235515,0.0
1705,-0.7415338914568541,0.0
1706,0.2091601732541119,0.0
1707,-0.2114374087813934,0.0
1708,-0.028634361141973843,0.0
1709,-0.06315575291334022,0.0
1710,0.006044376036072233,0.0
1711,0.025467255938453073,0.0
1712,-0.02282894768563313,0.0
1713,-0.09125901184192368,0.0
1714,-0.06586662607412438,0.0
1715,-0.030231126049759943,0.0
1716,-0.07236785872096524,0.0
1717,1.149329200938131,0.0
1718,6.596019955114772,0.0
1719,0.5727823399610967,0.0
1720,-1.5905217356931867,0.0
1721,0.9792065704293541,0.0
1722,-0.5810180266734086,0.0
1723,0.0922379850394061,0.0
1724,-0.15901560049776398,0.0
1725,-0.093735867979137,0.0
1726,-0.14744692892093286,0.0
1727,-0.15402018834031372,0.0
1728,-0.13764932294243604,0.0
1729,-0.06752693501865735,0.0
1730,-0.0957301342646491,0.0
1731,-0.05228677949377744,0.0
1732,-0.013211158772379154,0.0
1733,0.006627660921148949,0.0
1734,2.80336150085385,0.0
1735,6.711279289126949,0.0
1736,-2.403066334149335,0.0
1737,0.6306877165969442,0.0
1738,-0.09151364030058705,0.0
1739,-0.08868212270392714,0.0
1740,-0.043445328942989955,0.0
1741,-0.0333722821470659,0.0
1742,-0.04279729583210945,0.0
1743,-0.06759083035210615,0.0
1744,-0.053858052803076345,0.0
1745,-0.06655962451141427,0.0
1746,-0.03431673060456369,0.0
1747,-0.02460268416630248,0.0
1748,-0.04979308749931759,0.0
1749,-0.05067634781567871,0.0
1750,0.39377199881087116,0.0
1751,5.093572329090104,0.0
1752,4.352729541836304,0.0
1753,-2.9349809043433717,0.0
1754,1.6510268129422152,0.0
1755,-0.8120839389749833,0.0
1756,0.2738907848005241,0.0
1757,-0.059581404464709026,0.0
1758,0.01435379707590647,0.0
1759,-0.032882973427897026,0.0
1760,-0.04767509502613408,0.0
1761,-0.07720815336543174,0.0
1762,-0.023090404218250364,0.0
1763,-0.0373852670238269,0.0
1764,-0.019940470258263187,0.0
1765,0.0452789736192988,0.0
1766,-0.06631638032279313,0.0
1767,1.4008731022576597,0.0
1768,6.714720848368492,0.0
1769,0.7300249345944362,0.0
1770,-1.391730652554292,0.0
1771,1.1067445530655908,0.0
1772,-0.3878407670999191,0.0
1773,0.23770804897554976,0.0
1774,0.10854617965715105,0.0
1775,0.029466304209370478,0.0
1776,0.07433865452737173,0.0
1777,0.05516664557292755,0.0
1778,0.05821632096147532,0.0
1779,-0.0405602410033271,0.0
1780,-0.05959188658555799,0.0
1781,0.02796854536990069,0.0
1782,-0.10239953522137853,0.0
1783,0.10366379817657949,0.0
1784,2.99455619011451,0.0
1785,6.604893703274221,0.0
1786,-2.3546090410789087,0.0
1787,0.6510105781145006,0.0
1788,-0.13854800470994422,0.0
1789,-0.009438926649355531,0.0
1790,0.03342964103267125,0.0
1791,-0.007920005135566045,0.0
1792,0.06987380263270969,0.0
1793,0.08137719475806082,0.0
1794,0.04244443578825438,0.0
1795,0.044270627379447355,0.0
1796,0.013236620565836736,0.0
1797,-0.0479037665972403,0.0
1798,0.05040674665012819,0.0
1799,-0.13077176485647235,0.0
1800,0.31792988477819334,0.0
1801,5.115970069590088,0.0
1802,4.3305949103702694,0.0
1803,-3.050161744010494,0.0
1804,1.5755627548061584,0.0
1805,-0.7683477788360149,0.0
1806,0.3594912577056222,0.0
1807,-0.13764574739129357,0.0
1808,0.10537728399476001,0.0
1809,-0.08207159175396297,0.0
1810,-0.009151299279792871,0.0
1811,0.03017176469071765,0.0
1812,-0.13644604579877892,0.0
1813,-0.04862846000492316,0.0
1814,-0.0329780138728525,0.0
1815,-0.08877999982507581,0.0
1816,-0.008337065809480319,0.0
1817,1.2749511880108335,0.0
1818,6.669088433092573,0.0
1819,0.6100385880153445,0.0
1820,-1.5396635321450431,0.0
1821,1.0813991175878095,0.0
1822,-0.49615403132409014,0.0
1823,0.19276385448976488,0.0
1824,-0.16944714507096556,0.0
1825,0.028971719643533712,0.0
1826,-0.021667262415045085,0.0
1827,-0.039353838111479356,0.0
1828,-0.0013088079860895246,0.0
1829,-0.012168787846730783,0.0
1830,-0.024177736810332317,0.0
1831,0.05277097545868885,0.0
1832,0.027005860620058872,0.0
1833,0.037962299475126735,0.0
1834,2.962703408868665,0.0
1835,6.626604219201949,0.0
1836,-2.3930071691833286,0.0
1837,0.6855533456797269,0.0
1838,-0.09872767731194299,0.0
1839,-0.01246768965856896,0.0
1840,0.04982004748316187,0.0
1841,-0.08126778429570043,0.0
1842,-0.041048834223040676,0.0
1843,0.0008176708229157492,0.0
1844,-0.01287692609145719,0.0
1845,0.014364446967441302,0.0
1846,-0.014764094919754377,0.0
1847,-0.0008591471306094722,0.0
1848,-0.02934736572398246,0.0
1849,0.055784363637811224,0.0
1850,0.3529943239411526,0.0
1851,4.982573760407708,0.0
1852,4.212085682962356,0.0
1853,-2.9886217803557,0.0
1854,1.5662373891071324,0.0
1855,-0.7906149914908481,0.0
1856,0.282564590037801,0.0
1857,-0.17066623503593023,0.0
1858,0.07998315408338033,0.0
1859,0.008855716721743035,0.0
1860,0.028352930475549824,0.0
1861,-0.027870527526690003,0.0
1862,-0.07099194272694566,0.0
1863,-0.037404918148829173,0.0
1864,-0.0036229834808055366,0.0
1865,-0.047626315819112905,0.0
1866,-0.032466965009883254,0.0
1867,1.2140501677917235,0.0
1868,6.764394865481268,0.0
1869,0.6389133942450035,0.0
1870,-1.431615758686338,0.0
1871,1.0931983263963148,0.0
1872,-0.5026823491051143,0.0
1873,0.2234155547727091,0.0
1874,-0.1534919091442826,0.0
1875,0.0626903472763195,0.0
1876,-0.11002583254294389,0.0
1877,0.08435824554865481,0.0
1878,0.047427115860406974,0.0
1879,-0.059236859208966416,0.0
1880,0.01395576060791484,0.0
1881,0.05333299903989873,0.0
1882,-0.008055104299917688,0.0
1883,0.1566269895808828,0.0
1884,3.0232208913891965,0.0
1885,6.712610708469027,0.0
1886,-2.3264877528221892,0.0
1887,0.6004369083220512,0.0
1888,-0.06886290318975627,0.0
1889,0.10354276810135427,0.0
1890,0.049987238110726945,0.0
1891,0.005515515714902601,0.0
1892,0.004553260361232662,0.0
1893,0.06484392833286336,0.0
1894,0.11513657948200551,0.0
1895,0.06410739149539797,0.0
1896,-0.0015948240621737886,0.0
1897,0.06934011305636481,0.0
1898,0.0482960819329665,0.0
1899,-0.07176497874528376,0.0
1900,0.4112460479174411,0.0
1901,5.16311637664268,0.0
1902,4.327724884950241,0.0
1903,-2.9206310052006206,0.0
1904,1.6011898817786392,0.0
1905,-0.770668871501785,0.0
1906,0.3488674142216387,0.0
1907,-0.04816118040708048,0.0
1908,0.020510525002407853,0.0
1909,0.016674021626010282,0.0
1910,0.04495857740623126,0.0
1911,-0.01644520938228956,0.0
1912,-0.0009848450253959022,0.0
1913,-0.05325087934380175,0.0
1914,0.04397494213082186,0.0
1915,0.014314448449894525,0.0
1916,0.044007376953948,0.0
1917,1.3164013366991543,0.0
1918,6.73170077099732,0.0
1919,0.5586441699474635,0.0
1920,-1.4434154737416334,0.0
1921,0.9719240351496109,0.0
1922,-0.6009122851872335,0.0
1923,0.2513337160485344,0.0
1924,-0.02471769293446828,0.0
1925,-0.003548383014765129,0.0
1926,0.06263706569304134,0.0
1927,-0.00187822294372237,0.0
1928,0.05785281068042698,0.0
1929,0.07732209171527864,0.0
1930,0.09700953985914977,0.0
1931,0.007509801395117421,0.0
1932,0.0059559065857090615,0.0
1933,0.1362072274278517,0.0
1934,3.1309568424155874,0.0
1935,6.606914962867777,0.0
1936,-2.339244973836838,0.0
1937,0.7566725832630296,0.0
1938,-0.1041233049224071,0.0
1939,0.057898713242250086,0.0
1940,0.032673565303321134,0.0
1941,0.07913043427878397,0.0
1942,0.10702231702203398,0.0
1943,0.028617929276651285,0.0
1944,0.09982643233885216,0.0
1945,0.12386089333251751,0.0
1946,0.022800876150413766,0.0
1947,-0.007819757677747688,0.0
1948,0.13403066259572036,0.0
1949,-0.06915499474404552,0.0
1950,0.4066643441463753,0.0
1951,5.155725879812646,0.0
1952,4.297829759625711,0.0
1953,-2.806344838256963,0.0
1954,1.6934579095301576,0.0
1955,-0.6615453639685195,0.0
1956,0.3430863847062191,0.0
1957,-0.01753639693633577,0.0
1958,0.09546562554455536,0.0
1959,0.05570248907661744,0.0
1960,0.11696964156376935,0.0
1961,0.15409485298017958,0.0
1962,0.1537328675832852,0.0
1963,0.10230233158361453,0.0
1964,0.0759060607066933,0.0
1965,0.11161859893926876,0.0
1966,0.1544945716817629,0.0
1967,1.4369751078641346,0.0
1968,6.8776245414337565,0.0
1969,0.656006563879692,0.0
1970,-1.271683712465349,0.0
1971,1.0573134612375052,0.0
1972,-0.5070963344229628,0.0
1973,0.30943240274027056,0.0
1974,-0.019461479678129147,0.0
1975,0.09948203432248878,0.0
1976,0.06943314084876906,0.0
1977,-0.00046042570724477705,0.0
1978,0.05642451028487931,0.0
1979,0.03838795975132424,0.0
1980,0.049935810436719415,0.0
1981,0.002355601951361301,0.0
1982,-0.009550914496103714,0.0
1983,0.09586393820020633,0.0
1984,2.9351486399146283,0.0
1985,6.634645505422237,0.0
1986,-2.3956550423316596,0.0
1987,0.71468448742369,0.0
1988,-0.09016368339811706,0.0
1989,0.1538731465377015,0.0
1990,-0.02712341363012742,0.0
1991,0.12343211593196997,0.0
1992,0.10351057073697269,0.0
1993,0.16498449944998866,0.0
1994,0.13729344284335643,0.0
1995,-0.0057911447213660205,0.0
1996,0.07936602224398939,0.0
1997,0.0948841483657297,0.0
1998,0.08945377546422725,0.0
1999,0.06749631035574358,0.0
2000,0.5405343578034548,0.0
2001,5.215295636924298,0.0
2002,4.29163719402129,0.0
2003,-2.7490537122020466,0.0
2004,1.6635271624883499,0.0
2005,-0.8120043331888985,0.0
2006,0.41463746710977556,0.0
2007,0.02731472073399749,0.0
2008,0.09097161523206963,0.0
2009,0.04200952798366018,0.0
2010,0.035322945197394456,0.0
2011,0.12823689506696415,0.0
2012,0.106599759332721,0.0
2013,0.09612793498611505,0.0
2014,0.0637296703239736,0.0
2015,0.018980823221895975,0.0
2016,0.06701651625229961,0.0
2017,1.3273508572448436,0.0
2018,6.8529309496747315,0.0
2019,0.6579229895346193,0.0
2020,-1.3687092274708845,0.0
2021,0.9972622546580001,0.0
2022,-0.4659662356640506,0.0
2023,0.25817276414824764,0.0
2024,0.13581297291026434,0.0
2025,0.0016357897344337208,0.0
2026,0.11411982451449156,0.0
2027,0.11507622466600234,0.0
2028,0.06384852316456571,0.0
2029,0.07560704546603556,0.0
2030,0.05127009069030777,0.0
2031,0.11838076126958055,0.0
2032,0.025947722886675573,0.0
2033,0.13340044289181205,0.0
2034,3.059105908978982,0.0
2035,6.734852241357192,0.0
2036,-2.3155842322083244,0.0
2037,0.6881636455461854,0.0
2038,-0.0453657836229979,0.0
2039,0.1310831184783595,0.0
2040,0.056217706901337094,0.0
2041,0.07730261178737893,0.0
2042,-0.0005708968910742782,0.0
2043,0.07298217297776612,0.0
2044,-0.013490650687289302,0.0
2045,0.11819539258319701,0.0
2046,0.056359273871372975,0.0
2047,0.09921630162274878,0.0
2048,0.02606805652188722,0.0
2049,0.05078870012831162,0.0
2050,0.5016620953190256,0.0
2051,5.213981131859054,0.0
2052,4.1913482035977925,0.0
2053,-2.883572049063443,0.0
2054,1.6045349984162947,0.0
2055,-0.846215985431108,0.0
2056,0.37065288970893373,0.0
2057,-0.10794450050296857,0.0
2058,0.05153554244967426,0.0
2059,0.04077395254762551,0.0
2060,-0.0012648529193864458,0.0
2061,0.07873222818399528,0.0
2062,0.1346050181514249,0.0
2063,0.0014245080937340879,0.0
2064,0.04945276523754717,0.0
2065,0.04754428221082868,0.0
2066,-0.01696356524528414,0.0
2067,1.2697286143676567,0.0
2068,6.805286232436559,0.0
2069,0.5093642952269801,0.0
2070,-1.3734163323139674,0.0
2071,0.9056502914632664,0.0
2072,-0.4539847050313495,0.0
2073,0.20624046770289026,0.0
2074,-0.058262940526658355,0.0
2075,0.09321401751438113,0.0
2076,0.0992000949331165,0.0
2077,-0.012478571063089885,0.0
2078,0.02487043896537966,0.0
2079,0.06735153637448264,0.0
2080,0.030688341613931382,0.0
2081,-0.032993802954257884,0.0
2082,-0.03137753947097263,0.0
2083,-0.04920511661762665,0.0
2084,2.9968982006493414,0.0
2085,6.5987558762734935,0.0
2086,-2.3562591524582395,0.0
2087,0.8544291489434613,0.0
2088,-0.10755115870332267,0.0
2089,0.06392069117287305,0.0
2090,-0.009139740317988414,0.0
2091,0.08561663028559385,0.0
2092,0.03801177276001065,0.0
2093,0.02708264968067463,0.0
2094,0.06406282650443267,0.0
2095,0.035344010068717575,0.0
2096,0.03049176040683876,0.0
2097,0.015868826997433416,0.0
2098,0.027130413980213517,0.0
2099,0.05535888215940824,0.0
2100,0.35569999734857827,0.0
2101,5.215339342528916,0.0
2102,4.168263277057827,0.0
2103,-2.931003067417714,0.0
2104,1.4949985699451476,0.0
2105,-0.7498526465624941,0.0
2106,0.26217924318032976,0.0
2107,-0.23782110123664307,0.0
2108,-0.05523358994014315,0.0
2109,-0.015251564893929755,0.0
2110,-0.1226484321325007,0.0
2111,-0.025147517568933728,0.0
2112,-0.03771859090802862,0.0
2113,-0.02762436168576421,0.0
2114,0.029978210425081895,0.0
2115,-0.03673063590314769,0.0
2116,0.009212694181716347,0.0
2117,1.339343600051532,0.0
2118,6.741245261734169,0.0
2119,0.47073750640668716,0.0
2120,-1.50759083730803,0.0
2121,0.9120815322402482,0.0
2122,-0.45441306040574786,0.0
2123,0.18826281237667292,0.0
2124,-0.03435035518631049,0.0
2125,0.012300293444593954,0.0
2126,-0.005841587315467835,0.0
2127,0.03123836970025319,0.0
2128,-0.05241254304320429,0.0
2129,-0.055381200430296776,0.0
2130,0.07434273746519204,0.0
2131,-0.10029889502098938,0.0
2132,-0.023154938582391756,0.0
2133,0.015579783989485035,0.0
2134,3.0034048069003334,0.0
2135,6.610415028808663,0.0
2136,-2.5076285574273807,0.0
2137,0.7566966481994772,0.0
2138,-0.2518166232934342,0.0
2139,-0.007387139182101962,0.0
2140,-0.05779592220385912,0.0
2141,-0.09448542310757291,0.0
2142,0.01557420554775913,0.0
2143,-0.06485554520190051,0.0
2144,0.05985629591054076,0.0
2145,0.07076739256142751,0.0
2146,-0.1775615759828082,0.0
2147,-0.06870463658190834,0.0
2148,-0.042474443788037074,0.0
2149,-0.09309030011493888,0.0
2150,0.29230789939761004,0.0
2151,5.137382336255345,0.0
2152,4.119306654631839,0.0
2153,-2.978923090244893,0.0
2154,1.5245983426659424,0.0
2155,-0.9093838548149836,0.0
2156,0.3135677329742599,0.0
2157,-0.08035799224255344,0.0
2158,0.05390877072829041,0.0
2159,0.002261418916337285,0.0
2160,-0.059615105511025605,0.0
2161,0.10186612399731068,0.0
2162,-0.019081173411052046,0.0
2163,0.045986885290882525,0.0
2164,-0.02150485678595028,0.0
2165,-0.07168296662492382,0.0
2166,-0.03235938666830155,0.0
2167,1.3675310187346141,0.0
2168,6.707937199878598,0.0
2169,0.38903106444131186,0.0
2170,-1.4023043633563324,0.0
2171,0.9632502763231782,0.0
2172,-0.5456726879667139,0.0
2173,0.1903225112398496,0.0
2174,-0.13835497202775135,0.0
2175,-0.049723468530869196,0.0
2176,-0.1694591847004937,0.0
2177,-0.11908519157348284,0.0
2178,-0.10864790228606874,0.0
2179,-0.018177387416304466,0.0
2180,-0.16731588074813908,0.0
2181,-0.18559071026948543,0.0
2182,-0.16028638478038781,0.0
2183,-0.07915648404985973,0.0
2184,3.0316013942396665,0.0
2185,6.505174885278445,0.0
2186,-2.572543493340703,0.0
2187,0.6986013209379386,0.0
2188,-0.1778999343544744,0.0
2189,0.181283115972311,0.0
2190,0.05795329879627803,0.0
2191,0.11159894456926597,0.0
2192,0.05733686553276438,0.0
2193,-0.0038482288976531415,0.0
2194,0.016066661307887906,0.0
2195,0.13564964765390292,0.0
2196,0.11924154286266425,0.0
2197,0.07729914690040451,0.0
2198,0.07331159447223437,0.0
2199,0.09646979607096084,0.0
2200,0.4098487247379423,0.0
2201,5.216714257715435,0.0
2202,4.0350604078533765,0.0
2203,-2.8830474896581846,0.0
2204,1.6339064017096765,0.0
2205,-0.84311568810929,0.0
2206,0.3307384622118933,0.0
2207,-0.12439425724837604,0.0
2208,0.004396308082228392,0.0
2209,0.0033462516743911,0.0
2210,0.0013042653522074403,0.0
2211,-0.04358622259936284,0.0
2212,0.0221257265264504,0.0
2213,0.0006340364473610381,0.0
2214,0.06248171905946794,0.0
2215,0.09895065402843184,0.0
2216,0.07193941403230472,0.0
2217,1.3476755909584315,0.0
2218,6.774844733002006,0.0
2219,0.44320885947465605,0.0
2220,-1.402461855865776,0.0
2221,0.8840554213551661,0.0
2222,-0.5484267077801249,0.0
2223,0.17032607117412887,0.0
2224,-0.17101390091080312,0.0
2225,-0.03730121368678391,0.0
2226,-0.01899008556304913,0.0
2227,-0.03606898233576199,0.0
2228,0.004224978042099366,0.0
2229,-0.04139858289075131,0.0
2230,-0.007469594819689295,0.0
2231,-0.07038169097230328,0.0
2232,-0.01941920066964023,0.0
2233,0.038061456711310025,0.0
2234,3.0094330279762183,0.0
2235,6.474403065404857,0.0
2236,-2.451915912279812,0.0
2237,0.7861357396964327,0.0
2238,-0.1978375776158214,0.0
2239,0.045616263134840206,0.0
2240,0.04865077413235285,0.0
2241,-0.03992132545648583,0.0
2242,-0.027827670878662045,0.0
2243,0.016471914590665458,0.0
2244,0.015388129053452864,0.0
2245,-0.033083094640758745,0.0
2246,-0.0004580725850949485,0.0
2247,0.012465206879991479,0.0
2248,0.025377525375506256,0.0
2249,0.02011076531197642,0.0
2250,0.37560241103234415,0.0
2251,5.147307773455033,0.0
2252,4.0455418574995345,0.0
2253,-2.9435210502291485,0.0
2254,1.5931129466681966,0.0
2255,-0.8702584894107366,0.0
2256,0.3186247357327532,0.0
2257,-0.13702522856302246,0.0
2258,0.07319030761148097,0.0
2259,0.04384513362107684,0.0
2260,-0.007262964895902405,0.0
2261,-0.02415981879517368,0.0
2262,-0.08816469380260933,0.0
2263,0.051257985745854065,0.0
2264,-0.006609540446613887,0.0
2265,0.018648157687134542,0.0
2266,0.005634952846914551,0.0
2267,1.3322867434672059,0.0
2268,6.736297482610215,0.0
2269,0.3899240292089746,0.0
2270,-1.4620227821442084,0.0
2271,0.8241635982498885,0.0
2272,-0.580818614423008,0.0
2273,0.12797925606487015,0.0
2274,-0.1879499323916251,0.0
2275,-0.08145291279764004,0.0
2276,0.01989141247802253,0.0
2277,-0.0638169755250677,0.0
2278,-0.07785261841924837,0.0
2279,-0.05727395042904093,0.0
2280,-0.06572128720231274,0.0
2281,-0.061860508318222734,0.0
2282,-0.01545045066582508,0.0
2283,0.16293744305678745,0.0
2284,3.0320756201677477,0.0
2285,6.512854176030258,0.0
2286,-2.452369562652447,0.0
2287,0.7538435722203032,0.0
2288,-0.24090970712095078,0.0
2289,0.0036755464496580088,0.0
2290,-0.05135086510851092,0.0
2291,0.03472546699287508,0.0
2292,-0.0033286107647562888,0.0
2293,-0.07704990529499164,0.0
2294,-0.10018322691821432,0.0
2295,-0.08133927019405418,0.0
2296,-0.04275303678192237,0.0
2297,-0.05660496929689498,0.0
2298,-0.04289224434026957,0.0
2299,-0.09735429687635545,0.0
2300,0.30513717873120155,0.0
2301,5.163292097643885,0.0
2302,3.966812314758247,0.0
2303,-2.818818839336044,0.0
2304,1.4844406389654428,0.0
2305,-0.7982206564734463,0.0
2306,0.323680826181362,0.0
2307,-0.1423527144257029,0.0
2308,0.07646482599816176,0.0
2309,-0.14506374272854652,0.0
2310,0.025806983526199933,0.0
2311,0.015844818760354852,0.0
2312,0.07559331411803781,0.0
2313,0.012677569562968779,0.0
2314,0.029405659252727614,0.0
2315,-0.020237370970229387,0.0
2316,-0.06048123718638893,0.0
2317,1.2795933771472177,0.0
2318,6.67056312468666,0.0
2319,0.4437483208961312,0.0
2320,-1.3420270411292863,0.0
2321,0.9251665507297113,0.0
2322,-0.5772309185687621,0.0
2323,0.1552896455309631,0.0
2324,-0.10916921195287513,0.0
2325,-0.01658537025170754,0.0
2326,-0.09162867187612798,0.0
2327,-0.09995925760021829,0.0
2328,-0.04811821341911559,0.0
2329,-0.0038154073804391314,0.0
2330,-0.05226407817087593,0.0
2331,-0.1045774385235329,0.0
2332,-0.09202689608293164,0.0
2333,0.012300771634381643,0.0
2334,3.0309120357082344,0.0
2335,6.53454537161202,0.0
2336,-2.467384195664763,0.0
2337,0.6170592633224414,0.0
2338,-0.17791135867481359,0.0
2339,-0.004770785066834135,0.0
2340,-0.09425218063437625,0.0
2341,-0.12417252268888707,0.0
2342,-0.0550414155728771,0.0
2343,-0.15248600451460373,0.0
2344,-0.10152722874302184,0.0
2345,-0.0722712574079715,0.0
2346,0.020291396885094716,0.0
2347,-0.07332658439760821,0.0
2348,0.003870851182804093,0.0
2349,-0.02325819650893335,0.0
2350,0.37472142366171396,0.0
2351,5.183183586092891,0.0
2352,4.0466928127998045,0.0
2353,-2.9682836414592986,0.0
2354,1.6061077500357142,0.0
2355,-0.8255166717174435,0.0
2356,0.31453470982331044,0.0
2357,-0.24520043404226993,0.0
2358,0.03775131245977557,0.0
2359,-0.05913162196486155,0.0
2360,-0.12516867778834867,0.0
2361,-0.15724351092394942,0.0
2362,-0.11150798921759375,0.0
2363,-0.0660583527425083,0.0
2364,0.10836460164499451,0.0
2365,-0.06873779066137886,0.0
2366,-0.10721531750307552,0.0
2367,1.3406440459851865,0.0
2368,6.727584134929351,0.0
2369,0.33027962918860826,0.0
2370,-1.4263544254367988,0.0
2371,0.9155753453729173,0.0
2372,-0.5430903907946327,0.0
2373,0.18270364013211265,0.0
2374,-0.09667646271267424,0.0
2375,0.019860761482258293,0.0
2376,-0.0937201983260474,0.0
2377,-0.06072731623365808,0.0
2378,0.07813756816563872,0.0
2379,0.02352265953028522,0.0
2380,-0.07653646152146956,0.0
2381,-0.06270548065957929,0.0
2382,-0.1210881714232023,0.0
2383,0.019346428131361105,0.0
2384,3.113103442276821,0.0
2385,6.5099683121840455,0.0
2386,-2.4340985141314992,0.0
2387,0.7477403753796216,0.0
2388,-0.3380057376710308,0.0
2389,0.0552323219893403,0.0
2390,-0.12851804364116154,0.0
2391,-0.09724149579222297,0.0
2392,0.015829753098720374,0.0
2393,-0.1026918941496843,0.0
2394,-0.04815727913686428,0.0
2395,-0.04525163614208383,0.0
2396,0.023505521224170565,0.0
2397,-0.059135893608868645,0.0
2398,-0.009731413267452641,0.0
2399,-0.026741312609346465,0.0
2400,0.3223249251277686,0.0
2401,5.180151371143461,0.0
2402,3.9274123218451304,0.0
2403,-2.920771704492038,0.0
2404,1.5909994293433605,0.0
2405,-0.7880585284284918,0.0
2406,0.34461833242417955,0.0
2407,-0.2425209779459121,0.0
2408,0.007063866512448157,0.0
2409,-0.041621282909883955,0.0
2410,0.033634566360359906,0.0
2411,-0.0184672841355449,0.0
2412,0.019903757918544478,0.0
2413,0.03823452654672327,0.0
2414,-0.058730970534192586,0.0
2415,-0.028904536024406756,0.0
2416,-0.05873270136709037,0.0
2417,1.333064108020729,0.0
2418,6.7336928226020065,0.0
2419,0.2532165317841191,0.0
2420,-1.4230817294863163,0.0
2421,0.8632645501402049,0.0
2422,-0.6439212858068297,0.0
2423,0.1769141292862603,0.0
2424,-0.1905124269641804,0.0
2425,-0.14506197617133854,0.0
2426,-0.0955682499542877,0.0
2427,-0.05306655949939975,0.0
2428,-0.05305165694042892,0.0
2429,0.020028636345683082,0.0
2430,-0.06140042878617746,0.0
2431,-0.05846834171337686,0.0
2432,-0.12269105912200118,0.0
2433,-0.05105542238566011,0.0
2434,2.95740306899726,0.0
2435,6.527191130176373,0.0
2436,-2.48548488292099,0.0
2437,0.6376172822858576,0.0
2438,-0.17417253702324473,0.0
2439,0.026147239933731026,0.0
2440,-0.028989289874625103,0.0
2441,-0.009437488250312298,0.0
2442,0.016109578767107897,0.0
2443,-0.0341953254908511,0.0
2444,-0.07810646429718685,0.0
2445,-0.04352878830953394,0.0
2446,-0.028052509249351595,0.0
2447,-0.1014706221394725,0.0
2448,-0.02019234835357803,0.0
2449,0.05633086137162181,0.0
2450,0.4226237470988236,0.0
2451,5.2312750678480455,0.0
2452,4.013586162365888,0.0
2453,-2.939092689231347,0.0
2454,1.5986916458008495,0.0
2455,-0.784459272995895,0.0
2456,0.3252345555266503,0.0
2457,-0.03797492894340218,0.0
2458,-0.03110070399420474,0.0
2459,0.010623552058313609,0.0
2460,0.041217802909911914,0.0
2461,-0.08712173610782178,0.0
2462,-0.0258522319874004,0.0
2463,-0.030634605176846026,0.0
2464,-0.050981109673571674,0.0
2465,-0.044340971437748705,0.0
2466,0.06409845503537465,0.0
2467,1.4406124547005374,0.0
2468,6.774648543311916,0.0
2469,0.39762160837634386,0.0
2470,-1.3103159555460338,0.0
2471,0.8644149912121785,0.0
2472,-0.4987347820606702,0.0
2473,0.19642019959329698,0.0
2474,-0.11159328298681914,0.0
2475,-0.03260970544021149,0.0
2476,0.01333105389969768,0.0
2477,-0.09188310371492518,0.0
2478,-0.04465636681918591,0.0
2479,-0.05491303570293749,0.0
2480,-0.10861902021599024,0.0
2481,-0.016243866504035406,0.0
2482,-0.14941012888556698,0.0
2483,-0.01216570332808068,0.0
2484,3.070772569391182,0.0
2485,6.391093163504043,0.0
2486,-2.5945350961320433,0.0
2487,0.788606058987449,0.0
2488,-0.14676546532001555,0.0
2489,0.11474238297505901,0.0
2490,-0.12165545344609373,0.0
2491,0.007215173086144407,0.0
2492,-0.08079967150376696,0.0
2493,-0.010211801015100108,0.0
2494,0.004513892316461725,0.0
2495,0.04104498664359191,0.0
2496,-0.06146087716023492,0.0
2497,0.06200745642907196,0.0
2498,-0.05490262337732036,0.0
2499,-0.005787439870863213,0.0
2500,0.3651147065152473,0.0
2501,5.172417654454937,0.0
2502,3.93232159170376,0.0
2503,-2.9610231737572366,0.0
2504,1.4890228875841638,0.0
2505,-0.8012657559150778,0.0
2506,0.21999098349290158,0.0
2507,-0.11193812095897226,0.0
2508,-0.023192135439776235,0.0
2509,-0.005145247355752752,0.0
2510,-0.09671740530273909,0.0
2511,-0.02458899401243777,0.0
2512,0.08332098930003674,0.0
2513,0.033388783887354445,0.0
2514,-0.09560160041347036,0.0
2515,-0.009116517426107508,0.0
2516,-0.0150012217361642,0.0
2517,1.4123676238483958,0.0
2518,6.854838408478557,0.0
2519,0.3946902226798141,0.0
2520,-1.3343322214645608,0.0
2521,0.8603081742766933,0.0
2522,-0.5071513812138522,0.0
2523,0.13427364538960246,0.0
2524,-0.16154467603071565,0.0
2525,-0.1294086512709129,0.0
2526,-0.08489238417013745,0.0
2527,-0.08272567323257726,0.0
2528,-0.0713170299247536,0.0
2529,-0.10669524302027066,0.0
2530,0.026484150903658944,0.0
2531,-0.014455483999199117,0.0
2532,-0.09618328387893305,0.0
2533,0.11593079269737827,0.0
2534,3.0647926456322367,0.0
2535,6.488149182967695,0.0
2536,-2.4717205888983256,0.0
2537,0.7654465390536486,0.0
2538,-0.186679867973704,0.0
2539,0.028467936260133775,0.0
2540,-0.034221984619257004,0.0
2541,0.047732608958836534,0.0
2542,-0.020923315546085154,0.0
2543,-0.020928053412593343,0.0
2544,0.07468578954808885,0.0
2545,-0.03938584052245499,0.0
2546,0.08693949409315842,0.0
2547,-0.0044641238467405114,0.0
2548,0.009439826088255599,0.0
2549,-0.05557628675276543,0.0
2550,0.37460230333575895,0.0
2551,5.212488802334859,0.0
2552,3.97150937652871,0.0
2553,-2.965684917811406,0.0
2554,1.6023189997180818,0.0
2555,-0.875251375666929,0.0
2556,0.31296321552097767,0.0
2557,-0.13406233791554242,0.0
2558,-0.05420737479851286,0.0
2559,-0.01532688393786463,0.0
2560,0.03841349824562905,0.0
2561,-0.004262779321132948,0.0
2562,0.007711065219277134,0.0
2563,0.043094612055822934,0.0
2564,0.09810401669304399,0.0
2565,-0.01757655800776868,0.0
2566,0.03913208114858943,0.0
2567,1.4030254122065373,0.0
2568,6.864307949475971,0.0
2569,0.3637247390954906,0.0
2570,-1.281200211924113,0.0
2571,0.964404953580712,0.0
2572,-0.5008858683876787,0.0
2573,0.16925851376827156,0.0
2574,0.009386108311055338,0.0
2575,-0.04279730774630051,0.0
2576,-0.0013186349774539467,0.0
2577,0.009047983539910594,0.0
2578,0.026748380000187366,0.0
2579,0.04456599926545525,0.0
2580,-0.028985616445293676,0.0
2581,0.08457484481232694,0.0
2582,-0.01817710682552723,0.0
2583,0.012542843976641294,0.0
2584,3.120394297069328,0.0
2585,6.453178476459157,0.0
2586,-2.5728274610553443,0.0
2587,0.6901714305123977,0.0
2588,-0.24751704368713906,0.0
2589,0.08479527821866895,0.0
2590,-0.017659491207365895,0.0
2591,0.030513220442385438,0.0
2592,0.03674395041700027,0.0
2593,0.0843971001111725,0.0
2594,0.08895363978230614,0.0
2595,0.00930389382286837,0.0
2596,0.10354304953494572,0.0
2597,0.14457148740308703,0.0
2598,0.1303854391543927,0.0
2599,-0.0398719154798198,0.0
2600,0.49503689868646666,0.0
2601,5.389411854738621,0.0
2602,4.0292106385469575,0.0
2603,-2.828970892981381,0.0
2604,1.6208959148680575,0.0
2605,-0.7305174786285302,0.0
2606,0.37953477386506,0.0
2607,-0.04362624761437879,0.0
2608,0.0656722909475638,0.0
2609,0.007111207592988281,0.0
2610,0.010883886171117869,0.0
2611,-0.0019149099223170624,0.0
2612,0.04871266848165542,0.0
2613,-0.04116141332989118,0.0
2614,0.0001416000649706508,0.0
2615,0.0374560884010003,0.0
2616,0.010367021175618904,0.0
2617,1.4948572610119057,0.0
2618,6.809393930004408,0.0
2619,0.29582032271481845,0.0
2620,-1.2551403294009238,0.0
2621,0.8992432436779214,0.0
2622,-0.5058542198953796,0.0
2623,0.18994664086066781,0.0
2624,0.017836633409429627,0.0
2625,0.04844100539488076,0.0
2626,-0.02973247779795293,0.0
2627,-0.007324340121245459,0.0
2628,-0.04377437453902488,0.0
2629,0.08435039754775397,0.0
2630,0.08051683702957148,0.0
2631,-0.045166419282706115,0.0
2632,0.02902815535289573,0.0
2633,0.08791949655231521,0.0
2634,3.2333550629713406,0.0
2635,6.528362221931354,0.0
2636,-2.459628196862317,0.0
2637,0.9131599227147787,0.0
2638,-0.06057140589706106,0.0
2639,0.24318426552068945,0.0
2640,0.10347937514209678,0.0
2641,0.19117566728226712,0.0
2642,0.22543760941626995,0.0
2643,0.06612601237800632,0.0
2644,0.12668073855256243,0.0
2645,0.18235809930771624,0.0
2646,0.1255891311346729,0.0
2647,0.0681912237244877,0.0
2648,0.21006711938626593,0.0
2649,0.06348982753834849,0.0
2650,0.40497790183656734,0.0
2651,5.306409998990625,0.0
2652,3.933731221784026,0.0
2653,-2.895600442737424,0.0
2654,1.648195690332635,0.0
2655,-0.8153758593026373,0.0
2656,0.2232315970437468,0.0
2657,-0.09762833464914392,0.0
2658,0.04499283814000186,0.0
2659,-0.04449667887369412,0.0
2660,-0.06857145885786371,0.0
2661,0.010670670602843012,0.0
2662,-0.06722313732299424,0.0
2663,-0.09241041222556659,0.0
2664,-0.13831323805476659,0.0
2665,-0.09550039066155505,0.0
2666,-0.03804567053172432,0.0
2667,1.330790393611241,0.0
2668,6.761196556339758,0.0
2669,0.23563570866505235,0.0
2670,-1.239845410009999,0.0
2671,0.846179939725363,0.0
2672,-0.4884793641828603,0.0
2673,0.13512948842756667,0.0
2674,-0.18798495692280576,0.0
2675,-0.12239336481652886,0.0
2676,-0.012530301227443613,0.0
2677,0.06780514383216966,0.0
2678,-0.15544483560865696,0.0
2679,-0.04660186719207084,0.0
2680,0.03225639544869464,0.0
2681,-0.1813247414785303,0.0
2682,0.012344846082756655,0.0
2683,0.016465188076293505,0.0
2684,3.136754814521692,0.0
2685,6.373394135155718,0.0
2686,-2.522545065197132,0.0
2687,0.8320155954556797,0.0
2688,-0.2925541033439297,0.0
2689,0.009416894509973576,0.0
2690,-0.15842557783233285,0.0
2691,-0.013712359019311428,0.0
2692,-0.07619313035577702,0.0
2693,-0.016432441283142807,0.0
2694,-0.060574290734230166,0.0
2695,0.048075016724667664,0.0
2696,-0.0671833355931726,0.0
2697,-0.07150093200355072,0.0
2698,-0.0672385910196304,0.0
2699,-0.07903434356362868,0.0
2700,0.4537871722408262,0.0
2701,5.232813075591067,0.0
2702,3.7349602454244915,0.0
2703,-2.7888106620846975,0.0
2704,1.5683224617461848,0.0
2705,-0.7352526578647892,0.0
2706,0.37611080888809956,0.0
2707,-0.14420818560480672,0.0
2708,-0.0019837899397641204,0.0
2709,-0.035303984542783044,0.0
2710,0.03466911646711303,0.0
2711,-0.01895341604674767,0.0
2712,-0.034353735000917256,0.0
2713,0.01461786698447904,0.0
2714,0.12550136390995462,0.0
2715,0.003454580564834933,0.0
2716,-0.029571038848711328,0.0
2717,1.4379721518908313,0.0
2718,6.83208040084101,0.0
2719,0.12738052693052238,0.0
2720,-1.2213737133695497,0.0
2721,0.8566902230834103,0.0
2722,-0.4696749914088193,0.0
2723,0.1965877049404685,0.0
2724,-0.11312851672954632,0.0
2725,-0.13023461728666416,0.0
2726,-0.06354099460648897,0.0
2727,-0.08122027149489247,0.0
2728,-0.13124634977573907,0.0
2729,-0.018462843007673504,0.0
2730,-0.05914258876144425,0.0
2731,-0.011284671866443469,0.0
2732,0.025331972441880374,0.0
2733,0.001794594125890215,0.0
2734,3.185696221407952,0.0
2735,6.429655029964681,0.0
2736,-2.642439185926013,0.0
2737,0.7366966884042624,0.0
2738,-0.2756043377323618,0.0
2739,0.02589024123148135,0.0
2740,-0.054415615534734,0.0
2741,-0.02438522810525296,0.0
2742,-0.05240908335203215,0.0
2743,-0.08622619103387799,0.0
2744,-0.02144808335700351,0.0
2745,-0.09390081858804256,0.0
2746,-0.08774223266134404,0.0
2747,-0.07113689073473456,0.0
2748,0.026602941780901265,0.0
2749,-0.14704608461510743,0.0
2750,0.4270337590852554,0.0
2751,5.333708630022886,0.0
2752,3.8235014270329755,0.0
2753,-2.938548869120532,0.0
2754,1.5070172418497267,0.0
2755,-0.9059494354556359,0.0
2756,0.1730197359410769,0.0
2757,-0.14258837969374558,0.0
2758,-0.03407821869840856,0.0
2759,-0.14343222183079307,0.0
2760,-0.00396857747675089,0.0
2761,-0.16581958849451023,0.0
2762,-0.043959686946307266,0.0
2763,-0.09086111610769147,0.0
2764,-0.04433040068768872,0.0
2765,0.002353354066441507,0.0
2766,0.0020490974751087715,0.0
2767,1.3673374624742447,0.0
2768,6.771405119480072,0.0
2769,0.13828552101400457,0.0
2770,-1.1407593354909944,0.0
2771,0.8036996112000708,0.0
2772,-0.4503887617335641,0.0
2773,0.04898859912077329,0.0
2774,-0.15422330011394803,0.0
2775,-0.1528751362394321,0.0
2776,-0.006325842054050651,0.0
2777,-0.1658386135778146,0.0
2778,-0.09008075448293401,0.0
2779,-0.053987300699631216,0.0
2780,-0.15370016489447136,0.0
2781,-0.04429979056342999,0.0
2782,-0.11261891613836708,0.0
2783,-0.048298059356222854,0.0
2784,3.1162835554923243,0.0
2785,6.3625126563275005,0.0
2786,-2.615506197583323,0.0
2787,0.7787986084354047,0.0
2788,-0.30786971073291364,0.0
2789,0.04187914621630508,0.0
2790,-0.11930117862421719,0.0
2791,-0.1415478042159614,0.0
2792,-0.08753530147130426,0.0
2793,-0.006604612908346491,0.0
2794,-0.027010958931519793,0.0
2795,-0.06520688072485323,0.0
2796,-0.0702712945540669,0.0
2797,-0.05686811670098825,0.0
2798,-0.07479259740858338,0.0
2799,0.019122057532095824,0.0
2800,0.365016307273553,0.0
2801,5.273400249678397,0.0
2802,3.750667724243058,0.0
2803,-2.983063936049068,0.0
2804,1.5354392637745773,0.0
2805,-0.8318538952460789,0.0
2806,0.23473554824868528,0.0
2807,-0.24144680717483402,0.0
2808,0.008023424858625519,0.0
2809,-0.1349078244811563,0.0
2810,-0.02995884577071685,0.0
2811,-0.03492164056400018,0.0
2812,-0.028234128469406164,0.0
2813,0.00769673377016343,0.0
2814,-0.09017467410526091,0.0
2815,-0.0997654690847273,0.0
2816,-0.14987264350182766,0.0
2817,1.4022787906826266,0.0
2818,6.698047757944465,0.0
2819,0.06117493766003279,0.0
2820,-1.3772872947964023,0.0
2821,0.7483244547231339,0.0
2822,-0.6877113427333441,0.0
2823,0.09882425614284987,0.0
2824,-0.03225111395395083,0.0
2825,-0.12434264780452384,0.0
2826,-0.1626742591688235,0.0
2827,-0.048147678618340295,0.0
2828,-0.05991357527156201,0.0
2829,-0.11010202664321261,0.0
2830,-0.11347959652644385,0.0
2831,-0.13681333715803937,0.0
2832,-0.16355328945944048,0.0
2833,0.02402792318773289,0.0
2834,3.124603162329544,0.0
2835,6.364487669012664,0.0
2836,-2.596666414453202,0.0
2837,0.7314403450321115,0.0
2838,-0.42564845690698516,0.0
2839,-0.051616551169230446,0.0
2840,-0.13193639844538013,0.0
2841,-0.11594583822296513,0.0
2842,-0.06780656743249051,0.0
2843,-0.14256439765974216,0.0
2844,-0.07465787375891816,0.0
2845,-0.06425783979906242,0.0
2846,-0.06300607446167515,0.0
2847,-0.07291220732646812,0.0
2848,-0.10386675800377426,0.0
2849,-0.13706734524333547,0.0
2850,0.42985831085406695,0.0
2851,5.363705502524463,0.0
2852,3.7417400470891664,0.0
2853,-2.841527263677409,0.0
2854,1.6285833461219823,0.0
2855,-0.8674528078457695,0.0
2856,0.2195303826127698,0.0
2857,-0.12425471013137596,0.0
2858,-0.01841795133340324,0.0
2859,-0.10359082338284836,0.0
2860,-0.04008934070242451,0.0
2861,0.040155222730235765,0.0
2862,-0.03228312393943911,0.0
2863,-0.06641874252681496,0.0
2864,-0.07869115783493384,0.0
2865,-0.09013986060495167,0.0
2866,-0.1410950192359245,0.0
2867,1.3307598008786918,0.0
2868,6.816838380937185,0.0
2869,0.09285751051677574,0.0
2870,-1.204905603861732,0.0
2871,0.8150370446048395,0.0
2872,-0.4511974594734603,0.0
2873,0.12646445331166545,0.0
2874,-0.14577721294830087,0.0
2875,-0.10355003132790204,0.0
2876,-0.05222893288022186,0.0
2877,-0.13768554878780093,0.0
2878,-0.08772345469371612,0.0
2879,-0.12507809773662093,0.0
2880,-0.13977414817822456,0.0
2881,-0.31985389888324955,0.0
2882,-0.19106219443943903,0.0
2883,-0.12929339545960392,0.0
2884,3.1211488583899953,0.0
2885,6.1768944682657585,0.0
2886,-2.656134457471159,0.0
2887,0.6520625762671607,0.0
2888,-0.4800594001076306,0.0
2889,-0.024077030541000653,0.0
2890,-0.21074301197283724,0.0
2891,-0.03653050493736107,0.0
2892,-0.15173942849808278,0.0
2893,-0.07523658617068359,0.0
2894,-0.11322213569506372,0.0
2895,-0.06021324586017743,0.0
2896,-0.130291327788017,0.0
2897,-0.045410255482936444,0.0
2898,-0.08781641296772136,0.0
2899,-0.05243302516706844,0.0
2900,0.2882932275769342,0.0
2901,5.3966906937423715,0.0
2902,3.6516496119644892,0.0
2903,-2.788702123063984,0.0
2904,1.5556784095010299,0.0
2905,-0.8495731294914759,0.0
2906,0.2897607090782289,0.0
2907,-0.19287436068364397,0.0
2908,-0.09113967215906685,0.0
2909,-0.0037445707195734868,0.0
2910,-0.08870201025210357,0.0
2911,-0.15723117254617305,0.0
2912,-0.08123995168940995,0.0
2913,-0.1456322483262772,0.0
2914,-0.14170123324615233,0.0
2915,-0.022439924274182815,0.0
2916,-0.11066438487442187,0.0
2917,1.4666199204996544,0.0
2918,6.764120166226172,0.0
2919,0.021638516657395183,0.0
2920,-1.2648129946361482,0.0
2921,0.7303853614041235,0.0
2922,-0.6171914037220368,0.0
2923,0.13189728362070832,0.0
2924,-0.16383604377042538,0.0
2925,-0.049227157444130726,0.0
2926,-0.009665733429799803,0.0
2927,-0.020375250414213952,0.0
2928,-0.17330440139174003,0.0
2929,-0.18577232177201314,0.0
2930,-0.12955562298285533,0.0
2931,-0.04871176282658425,0.0
2932,-0.14321806333004022,0.0
2933,-0.01177949461163634,0.0
2934,3.1597592393418443,0.0
2935,6.324796430987807,0.0
2936,-2.7161538214920538,0.0
2937,0.8219612003241767,0.0
2938,-0.4029937498458016,0.0
2939,0.002385349859511013,0.0
2940,-0.11288266979541747,0.0
2941,-0.04175917490951932,0.0
2942,-0.21275384254432,0.0
2943,-0.1389404676803064,0.0
2944,-0.07889051520495755,0.0
2945,-0.07902792929556035,0.0
2946,-0.003203143155262836,0.0
2947,-0.044891275691439594,0.0
2948,-0.12970679814218314,0.0
2949,-0.13563334572220798,0.0
2950,0.27306285206260894,0.0
2951,5.282525149315257,0.0
2952,3.624992857948488,0.0
2953,-2.9325239993382595,0.0
2954,1.4970472173673828,0.0
2955,-0.895627940930304,0.0
2956,0.25382588134637774,0.0
2957,-0.30259567755032846,0.0
2958,-0.09119388857483764,0.0
2959,-0.1062163985013782,0.0
2960,-0.15014878551257077,0.0
2961,-0.08250240567978195,0.0
2962,-0.03356630358566816,0.0
2963,-0.026184132043007402,0.0
2964,-0.07758846562463466,0.0
2965,-0.07945970402402967,0.0
2966,-0.1492237796376496,0.0
2967,1.3408999129267358,0.0
2968,6.779118304783123,0.0
2969,-0.02126213769521787,0.0
2970,-1.1073631896740064,0.0
2971,0.7958390600629811,0.0
2972,-0.558638295148969,0.0
2973,0.10335367259849769,0.0
2974,-0.1949438192674894,0.0
2975,-0.089341628088528,0.0
2976,-0.01140857939152861,0.0
2977,-0.09056520678645616,0.0
2978,-0.03458079241694542,0.0
2979,-0.07282751092675777,0.0
2980,-0.12317256422244192,0.0
2981,0.004918137099028989,0.0
2982,0.06281744127894831,0.0
2983,0.06559429336022381,0.0
2984,3.2525436714329428,0.0
2985,6.367108451496612,0.0
2986,-2.7959024953323217,0.0
2987,0.8873877240245773,0.0
2988,-0.30256295526442406,0.0
2989,0.03620180305793745,0.0
2990,-0.11732987598294245,0.0
2991,-0.024011666015410004,0.0
2992,-0.02130754409715422,0.0
2993,0.019885227993120612,0.0
2994,-0.0543503280186288,0.0
2995,-0.07304447396035399,0.0
2996,-0.018570723894620507,0.0
2997,-2.401612871046066e-05,0.0
2998,-0.07533959388141168,0.0
2999,-0.08385014205497339,0.0
3000,0.3653885871857797,0.0
3001,5.337388131173244,0.0
3002,3.721900457979523,0.0
3003,-2.849724815658092,0.0
3004,1.5037598166560764,0.0
3005,-0.8138593815847139,0.0
3006,0.26202349764934385,0.0
3007,-0.16857768386541727,0.0
3008,-0.0409780502315053,0.0
3009,-0.03280452907146889,0.0
3010,-0.0014020335050287762,0.0
3011,0.012005985983830306,0.0
3012,0.04632115548117652,0.0
3013,0.04779131792859556,0.0
3014,0.09349970830896892,0.0
3015,0.08152570073701484,0.0
3016,0.007142409948471335,0.0
3017,1.5534816238628,0.0
3018,6.814632916321074,0.0
3019,0.12281516744856094,0.0
3020,-1.1310972320515806,0.0
3021,0.7942204376328109,0.0
3022,-0.34765940023721054,0.0
3023,0.19244070505850194,0.0
3024,-0.12621166932975286,0.0
3025,-0.07016034065866673,0.0
3026,-0.021760255633307083,0.0
3027,0.06774268482373172,0.0
3028,0.058693319328621596,0.0
3029,-0.06230765853745989,0.0
3030,-0.06786533233245012,0.0
3031,0.08247582822474328,0.0
3032,-0.0010737989185432562,0.0
3033,0.15983531271406162,0.0
3034,3.325256698476222,0.0
3035,6.518495049293265,0.0
3036,-2.608665570537375,0.0
3037,0.9634973417731424,0.0
3038,-0.217052182409814,0.0
3039,0.2010125609256912,0.0
3040,-0.11167536512034483,0.0
3041,-0.028044121382032813,0.0
3042,-0.03920491187304711,0.0
3043,0.050301547502631126,0.0
3044,0.0033076544523688444,0.0
3045,0.004221991121506909,0.0
3046,0.005334556152340178,0.0
3047,-0.004210354546133282,0.0
3048,0.05811438583154825,0.0
3049,0.04168261328928979,0.0
3050,0.517215992378382,0.0
3051,5.497179344041673,0.0
3052,3.7084190120914946,0.0
3053,-2.856494488106631,0.0
3054,1.608266947938739,0.0
3055,-0.7038151459400803,0.0
3056,0.33553790574482456,0.0
3057,-0.04717240106213147,0.0
3058,0.011012072522236856,0.0
3059,-0.1094929284878057,0.0
3060,-0.04228491942580771,0.0
3061,-0.07709348144656934,0.0
3062,-0.0048653951224872875,0.0
3063,-0.003925013298013668,0.0
3064,-0.0707788216340786,0.0
3065,0.012374451510920882,0.0
3066,-0.054006831222521014,0.0
3067,1.3975400286981898,0.0
3068,6.957747412900011,0.0
3069,0.10796989634832735,0.0
3070,-1.0918166649794945,0.0
3071,0.9307004780698784,0.0
3072,-0.3730431775062059,0.0
3073,0.20687763026500905,0.0
3074,-0.03751105565198763,0.0
3075,0.06093894888737643,0.0
3076,0.034147654838540084,0.0
3077,0.0019161308220905782,0.0
3078,-0.010670099466360472,0.0
3079,-0.03418773191083672,0.0
3080,0.0019782542871056106,0.0
3081,-0.04468698205792736,0.0
3082,-0.10962328278220174,0.0
3083,-0.0046368269688470895,0.0
3084,3.2932642802105807,0.0
3085,6.261514162653089,0.0
3086,-2.612965578721954,0.0
3087,0.8710194863038762,0.0
3088,-0.3710909138898706,0.0
3089,0.028372873263086802,0.0
3090,-0.03191066199023386,0.0
3091,0.04110146329466551,0.0
3092,-0.011277532249446016,0.0
3093,0.005475464952653957,0.0
3094,-0.12056274558854563,0.0
3095,0.04475233640029794,0.0
3096,-0.02684055695710512,0.0
3097,0.05470641755258641,0.0
3098,-0.0618596372228786,0.0
3099,0.013130158478886537,0.0
3100,0.46824581799588916,0.0
3101,5.429277319534148,0.0
3102,3.740173505374543,0.0
3103,-2.761246242438498,0.0
3104,1.6642620076678396,0.0
3105,-0.7717285281009517,0.0
3106,0.336416084137376,0.0
3107,-0.053670374287325906,0.0
3108,0.03016433849339136,0.0
3109,-0.007565736105607219,0.0
3110,-0.04574700004171065,0.0
3111,0.06337342190894128,0.0
3112,-0.002581217928287977,0.0
3113,0.051295961016102315,0.0
3114,0.0010623586469266722,0.0
3115,0.010975303340658096,0.0
3116,-0.025520532234110452,0.0
3117,1.5025567942548077,0.0
3118,6.904664793739066,0.0
3119,-0.08234343541917065,0.0
3120,-1.0442835189397974,0.0
3121,0.8786959395128838,0.0
3122,-0.46245369000501335,0.0
3123,0.11974215337479463,0.0
3124,0.0063737828193075816,0.0
3125,-0.029484164944226968,0.0
3126,-0.04974769229222352,0.0
3127,0.03227261543319938,0.0
3128,0.006738127440402225,0.0
3129,0.03607130087219794,0.0
3130,0.004119098899138217,0.0
3131,0.0006669128590965911,0.0
3132,0.1044076969091474,0.0
3133,0.14539890215270604,0.0
3134,3.2942875952481456,0.0
3135,6.414291677404854,0.0
3136,-2.5651179941672737,0.0
3137,0.9254116399836558,0.0
3138,-0.2629645618841804,0.0
3139,0.15189802689921977,0.0
3140,0.003980634626424574,0.0
3141,0.0386208463552073,0.0
3142,-0.00584362871805548,0.0
3143,0.028071581607737577,0.0
3144,0.10625046427086883,0.0
3145,0.03635829614580358,0.0
3146,0.11348500326098218,0.0
3147,0.018882514148159443,0.0
3148,0.02652183075990562,0.0
3149,-0.05207164568272077,0.0
3150,0.47030934782750977,0.0
3151,5.435841438638167,0.0
3152,3.63869543971325,0.0
3153,-2.884846869666007,0.0
3154,1.6365058462572986,0.0
3155,-0.7522555216510126,0.0
3156,0.3558809536845578,0.0
3157,-0.1651275053902794,0.0
3158,0.02997501415581523,0.0
3159,-0.021490718226809973,0.0
3160,-0.05424004685933062,0.0
3161,0.002063744046070279,0.0
3162,0.030784336763561744,0.0
3163,-0.012041911749551222,0.0
3164,-0.033967342344539964,0.0
3165,0.02234929897290089,0.0
3166,-0.05224843154113534,0.0
3167,1.365045805591433,0.0
3168,6.8336801217827015,0.0
3169,0.009393935354049997,0.0
3170,-1.1837965919639966,0.0
3171,0.7034487653644695,0.0
3172,-0.5165232259550312,0.0
3173,0.0646863883108352,0.0
3174,-0.1828219935972274,0.0
3175,-0.07073192125114072,0.0
3176,0.010628796279994378,0.0
3177,-0.046933461694119834,0.0
3178,0.0230925876607795,0.0
3179,-0.0007420505090035209,0.0
3180,0.007369848878340815,0.0
3181,-0.03628278823545215,0.0
3182,-0.04318976639900331,0.0
3183,0.03663813173779236,0.0
3184,3.3142486558880067,0.0
3185,6.372665884242565,0.0
3186,-2.6573800026643273,0.0
3187,0.9516487178873398,0.0
3188,-0.2686635743071282,0.0
3189,0.004482037514326367,0.0
3190,0.017586227811398777,0.0
3191,-0.04607045040750453,0.0
3192,-0.027018828265631786,0.0
3193,-0.011345693094474415,0.0
3194,-0.0658782717566669,0.0
3195,-0.04755344049966793,0.0
3196,-0.022692944865076177,0.0
3197,-0.08973847361631061,0.0
3198,0.03162493164373964,0.0
3199,0.0011646886752525627,0.0
3200,0.5484450462698015,0.0
3201,5.392404254799377,0.0
3202,3.642355866160465,0.0
3203,-2.7907417871595857,0.0
3204,1.5094768949672224,0.0
3205,-0.8026207037181348,0.0
3206,0.24255625999276728,0.0
3207,-0.11508452823827373,0.0
3208,-0.018816943151416687,0.0
3209,-0.06294673088759696,0.0
3210,-0.009465971999678356,0.0
3211,0.031889047136226784,0.0
3212,0.028696961823185377,0.0
3213,-0.04870657931541683,0.0
3214,0.07792576631316671,0.0
3215,-0.02653915761022825,0.0
3216,-0.07631546607358144,0.0
3217,1.4950911504077018,0.0
3218,6.916362491872291,0.0
3219,-0.031154927747007514,0.0
3220,-1.0836803929383092,0.0
3221,0.8215057258845668,0.0
3222,-0.4325074989502169,0.0
3223,0.21417937573737808,0.0
3224,-0.08279512175699877,0.0
3225,0.0031528543779251995,0.0
3226,-0.02904337248138398,0.0
3227,0.045303835981008275,0.0
3228,-0.02909355419240697,0.0
3229,-0.039466327279971486,0.0
3230,-0.041491172454039944,0.0
3231,0.04422980428846152,0.0
3232,-0.006483314371697817,0.0
3233,-0.007512151928598096,0.0
3234,3.329224527731631,0.0
3235,6.284332760592909,0.0
3236,-2.5866242797586314,0.0
3237,0.9614549475092878,0.0
3238,-0.22976155120094874,0.0
3239,0.04214498476764639,0.0
3240,-0.055465233790232576,0.0
3241,-0.02675525938017107,0.0
3242,0.06584709557809085,0.0
3243,0.1249607200401543,0.0
3244,0.07463629940712668,0.0
3245,-0.027315117205222235,0.0
3246,0.016068172591759133,0.0
3247,-0.017741828705040916,0.0
3248,0.0016218248486417237,0.0
3249,0.017010085067824043,0.0
3250,0.5092855167119905,0.0
3251,5.506701707645768,0.0
3252,3.6690258107159424,0.0
3253,-2.7209341947260217,0.0
3254,1.451054340945612,0.0
3255,-0.791858190383626,0.0
3256,0.321053182823428,0.0
3257,-0.15032599759034773,0.0
3258,-0.10553058811778944,0.0
3259,0.0054025887921058165,0.0
3260,0.0642239483613321,0.0
3261,-0.05056929855203381,0.0
3262,-0.07883411879103416,0.0
3263,0.009881341235629126,0.0
3264,0.01812623877179697,0.0
3265,-0.012792723481331165,0.0
3266,0.04867436395477785,0.0
3267,1.462664416609295,0.0
3268,6.89913098654869,0.0
3269,-0.020309186570814278,0.0
3270,-1.0899184288512145,0.0
3271,0.8366240059781822,0.0
3272,-0.4125640642563958,0.0
3273,0.133368919459369,0.0
3274,-0.0746608628098083,0.0
3275,-0.0009633895346683463,0.0
3276,-0.014679827690061209,0.0
3277,0.045658145227998964,0.0
3278,0.03487736610737838,0.0
3279,-0.019995393123649223,0.0
3280,0.13244974943318152,0.0
3281,0.01795276516606435,0.0
3282,0.0027667799656104115,0.0
3283,0.15312077104077004,0.0
3284,3.4008274565515344,0.0
3285,6.446910984324415,0.0
3286,-2.632783511031235,0.0
3287,1.0053907129452295,0.0
3288,-0.23610634482123533,0.0
3289,0.15340848494553236,0.0
3290,-0.026995544878132,0.0
3291,-0.006461812378526645,0.0
3292,0.05639404532648776,0.0
3293,0.0004918522771574646,0.0
3294,0.00020958770763314372,0.0
3295,-0.0628333831146114,0.0
3296,0.02211254274276212,0.0
3297,0.024150768240115514,0.0
3298,0.06310942650832695,0.0
3299,-0.0526633709933576,0.0
3300,0.4680157786029987,0.0
3301,5.438929493419161,0.0
3302,3.62695493403097,0.0
3303,-2.734669223722035,0.0
3304,1.5849705344368807,0.0
3305,-0.7721604038906721,0.0
3306,0.2510926428793626,0.0
3307,-0.06140462699670109,0.0
3308,0.06580936359968036,0.0
3309,-0.006305240629796045,0.0
3310,0.010897121417475043,0.0
3311,0.06526578215511417,0.0
3312,0.018864022900547017,0.0
3313,0.12972700310538668,0.0
3314,0.04815987827791482,0.0
3315,0.10674665600449265,0.0
3316,-0.0027801797514562104,0.0
3317,1.6035310483687832,0.0
3318,6.880311752171082,0.0
3319,-0.03452766633466219,0.0
3320,-0.9113279441445559,0.0
3321,0.8748324519171078,0.0
3322,-0.3379355118594567,0.0
3323,0.31441949497191773,0.0
3324,-0.004252453076410277,0.0
3325,0.1333742988331145,0.0
3326,0.11340047286247759,0.0
3327,0.14808430567704992,0.0
3328,0.028597314118885164,0.0
3329,0.16306842764819143,0.0
3330,0.08553959018988838,0.0
3331,0.16261195714215898,0.0
3332,0.11293646900062178,0.0
3333,0.21138648235635152,0.0
3334,3.4242745001718875,0.0
3335,6.395526680013073,0.0
3336,-2.598048524412694,0.0
3337,1.0244409623062878,0.0
3338,-0.2458774903648024,0.0
3339,0.17828629333770635,0.0
3340,0.008777098060915891,0.0
3341,0.018319385214337604,0.0
3342,0.11093824411011019,0.0
3343,0.05926086336434649,0.0
3344,0.07377695826815125,0.0
3345,0.017919228807598553,0.0
3346,0.08526202072795802,0.0
3347,0.11635348300616608,0.0
3348,0.09879569103061914,0.0
3349,-0.07937779619718882,0.0
3350,0.6635482890265054,0.0
3351,5.570634782083381,0.0
3352,3.7368153318232746,0.0
3353,-2.6189567957546624,0.0
3354,1.6319078067693435,0.0
3355,-0.6714519107934572,0.0
3356,0.3443593216204837,0.0
3357,-0.04529184876894488,0.0
3358,0.0755451237109339,0.0
3359,0.09026312324891861,0.0
3360,0.10131823524416922,0.0
3361,0.04426241295602744,0.0
3362,0.10387790601771944,0.0
3363,-0.06156255067623071,0.0
3364,0.10973223939105695,0.0
3365,0.08626784296749988,0.0
3366,0.01862916736982327,0.0
3367,1.5862988870862036,0.0
3368,6.94891409472626,0.0
3369,-0.06692456990751972,0.0
3370,-0.9593254434118236,0.0
3371,0.856941170131768,0.0
3372,-0.34995039675790723,0.0
3373,0.10377574577694201,0.0
3374,-0.09965069791317574,0.0
3375,0.11022150994394654,0.0
3376,0.11496712093966588,0.0
3377,-0.0035250827956810685,0.0
3378,0.0826854182052858,0.0
3379,-0.01843008462481724,0.0
3380,0.0021673024890437875,0.0
3381,0.11100493781902115,0.0
3382,0.007858364124102627,0.0
3383,0.19919984996279622,0.0
3384,3.4472562230101014,0.0
3385,6.3505659804646,0.0
3386,-2.6779624043621055,0.0
3387,1.0093960223785188,0.0
3388,-0.2077538884719176,0.0
3389,0.189218597880558,0.0
3390,-0.09811471788955967,0.0
3391,0.04229674058680027,0.0
3392,0.013163211683892503,0.0
3393,0.05755261941641891,0.0
3394,0.02574798060103799,0.0
3395,0.0732368901150372,0.0
3396,0.02873679366128681,0.0
3397,0.05020037919321577,0.0
3398,0.0216964028605785,0.0
3399,-0.043267761631625115,0.0
3400,0.5852974629898775,0.0
3401,5.500686862567009,0.0
3402,3.531928263996118,0.0
3403,-2.704589674241362,0.0
3404,1.5149715900117804,0.0
3405,-0.7317806055505565,0.0
3406,0.45249749853290777,0.0
3407,-0.12111144543201144,0.0
3408,0.05351014399688134,0.0
3409,0.03934241656971863,0.0
3410,0.048350608419677144,0.0
3411,0.07634300832278686,0.0
3412,0.10128922326416029,0.0
3413,0.14818719309847028,0.0
3414,0.041317723762640285,0.0
3415,0.0842484809002472,0.0
3416,0.03223716676715444,0.0
3417,1.6576771659544571,0.0
3418,6.976374188448781,0.0
3419,0.027178932450788597,0.0
3420,-1.012136358071338,0.0
3421,0.9075709744393771,0.0
3422,-0.43196516731518586,0.0
3423,0.22034539359348687,0.0
3424,-0.02217191207163608,0.0
3425,0.016926715665863717,0.0
3426,0.010828323462337308,0.0
3427,-0.038305345181173386,0.0
3428,0.08009857990619093,0.0
3429,-0.022781122704062278,0.0
3430,0.01886200499122871,0.0
3431,-0.0987928731105488,0.0
3432,0.013569776311264556,0.0
3433,0.03182372621093239,0.0
3434,3.385717555889106,0.0
3435,6.273418270548618,0.0
3436,-2.753502943241503,0.0
3437,0.9259100239959089,0.0
3438,-0.3956237890263104,0.0
3439,0.06442816263643628,0.0
3440,-0.14044905928400372,0.0
3441,-0.0459654809802512,0.0
3442,0.03301733645981815,0.0
3443,-0.043298047139368925,0.0
3444,-0.0025663087199860775,0.0
3445,-0.06339758291203049,0.0
3446,-0.04643119873684877,0.0
3447,-0.02044839473251803,0.0
3448,0.06252904507200426,0.0
3449,0.009693823282651393,0.0
3450,0.4604928347274249,0.0
3451,5.52159710126482,0.0
3452,3.597426187876691,0.0
3453,-2.775523536905391,0.0
3454,1.667148425179635,0.0
3455,-0.8432432094699366,0.0
3456,0.28155486993727596,0.0
3457,-0.1730051823336098,0.0
3458,-0.062177978144145184,0.0
3459,-0.040485308961836386,0.0
3460,-0.05293168420178951,0.0
3461,-0.05065631713703363,0.0
3462,0.04355645415911107,0.0
3463,-0.036002535341308366,0.0
3464,-0.09798390698882273,0.0
3465,-0.05779279098339497,0.0
3466,0.06822391015658717,0.0
3467,1.5380805093933885,0.0
3468,6.83595404399846,0.0
3469,-0.12174030763027893,0.0
3470,-0.9847235573250159,0.0
3471,0.8567156505321983,0.0
3472,-0.3657837552854085,0.0
3473,0.17253440603395123,0.0
3474,-0.053958738842045106,0.0
3475,0.019507289209054885,0.0
3476,0.0864530002122903,0.0
3477,0.03018568741675491,0.0
3478,-0.009183032861774377,0.0
3479,0.07122519677395388,0.0
3480,0.018468760379242534,0.0
3481,-0.008305938997968491,0.0
3482,-0.025060221598180263,0.0
3483,0.08778517687517853,0.0
3484,3.42179970943414,0.0
3485,6.33993549498348,0.0
3486,-2.66475140947569,0.0
3487,0.9940307190872097,0.0
3488,-0.2712628963900567,0.0
3489,0.1644986423051472,0.0
3490,-0.03936532010740313,0.0
3491,0.0903053724647418,0.0
3492,0.0320928512891341,0.0
3493,-0.07348937800761125,0.0
3494,0.0006368118208501037,0.0
3495,-0.007085869803365387,0.0
3496,0.09997044924399441,0.0
3497,0.028662762775585618,0.0
3498,0.039341774835443453,0.0
3499,-0.02606684075103793,0.0
3500,0.5232735820381785,0.0
3501,5.35632765957932,0.0
3502,3.527792953038371,0.0
3503,-2.7024529852800145,0.0
3504,1.589685520542907,0.0
3505,-0.8264513034782439,0.0
3506,0.3141363819649133,0.0
3507,-0.12956655806755654,0.0
3508,0.04222940283993035,0.0
3509,-0.05282718356983078,0.0
3510,-0.04388416070234534,0.0
3511,-0.08214144835426598,0.0
3512,0.050434544794621866,0.0
3513,-0.02996288865212793,0.0
3514,0.0072783802484570614,0.0
3515,-0.005263950699767763,0.0
3516,-0.015555970752162931,0.0
3517,1.6126372612213218,0.0
3518,6.9069299620575535,0.0
3519,-0.016520649762844508,0.0
3520,-1.0383931414644052,0.0
3521,0.910296761439838,0.0
3522,-0.2686455051856371,0.0
3523,0.2868850036604075,0.0
3524,-0.04851540612587109,0.0
3525,0.03289190292461681,0.0
3526,0.15065068642474727,0.0
3527,0.06466115149919131,0.0
3528,0.002625044863540836,0.0
3529,-0.05182305948025834,0.0
3530,0.05348688948307909,0.0
3531,-0.048910455782012086,0.0
3532,0.026644736186234235,0.0
3533,0.11166732762044594,0.0
3534,3.3581315659545456,0.0
3535,6.1847502864621084,0.0
3536,-2.7399486429958455,0.0
3537,1.035895142209575,0.0
3538,-0.3533443119885542,0.0
3539,0.11654859367721271,0.0
3540,-0.057433405605872304,0.0
3541,-0.017372794842765545,0.0
3542,0.051565111048743374,0.0
3543,-0.025549151158839694,0.0
3544,-0.06378056461045917,0.0
3545,0.0031996734865956007,0.0
3546,-0.015800051351745108,0.0
3547,-0.02348248207719291,0.0
3548,0.060939793937898785,0.0
3549,0.03713280566252902,0.0
3550,0.5186478713562351,0.0
3551,5.436484908832148,0.0
3552,3.5279702615208928,0.0
3553,-2.8130268858622736,0.0
3554,1.5618470018391037,0.0
3555,-0.7486839820741468,0.0
3556,0.3511670932207613,0.0
3557,0.0006296504786946211,0.0
3558,0.07986547324052179,0.0
3559,0.08790276227558391,0.0
3560,-0.02069876166904571,0.0
3561,0.009188214837164102,0.0
3562,-0.02910541081084983,0.0
3563,0.020121325800795325,0.0
3564,0.09787395052111847,0.0
3565,-0.031178461946900382,0.0
3566,0.05534257047392467,0.0
3567,1.6718326798600327,0.0
3568,6.9377120594348485,0.0
3569,-0.22867624604129358,0.0
3570,-0.9548566814988354,0.0
3571,0.8325475742533149,0.0
3572,-0.3707840744930145,0.0
3573,0.2794114611227877,0.0
3574,-0.127593053899939,0.0
3575,-0.021426958975856496,0.0
3576,0.019491991641275148,0.0
3577,0.007220353857072884,0.0
3578,-0.0025537974898138076,0.0
3579,-0.03440414734312461,0.0
3580,-0.04051865256597415,0.0
3581,0.09569665674544427,0.0
3582,-0.06252355197884658,0.0
3583,0.04671856582796298,0.0
3584,3.497874918334241,0.0
3585,6.239776527751514,0.0
3586,-2.73576794533122,0.0
3587,1.1137333191251335,0.0
3588,-0.37363748091239374,0.0
3589,0.14168677599986537,0.0
3590,-0.008191405012281161,0.0
3591,0.07438095695101521,0.0
3592,0.05149208695539802,0.0
3593,-0.008415212656710497,0.0
3594,0.027225383930119532,0.0
3595,0.06397400640720892,0.0
3596,-0.05108375377042612,0.0
3597,-0.024260777868974914,0.0
3598,0.08503660507988364,0.0
3599,-0.049881347567302343,0.0
3600,0.5542079310651057,0.0
3601,5.56078246012875,0.0
3602,3.467123236454888,0.0
3603,-2.735591961044773,0.0
3604,1.5192388672001182,0.0
3605,-0.8610573706221344,0.0
3606,0.3702936892925971,0.0
3607,-0.08885466809046014,0.0
3608,0.024188582954781133,0.0
3609,-0.0435211896657949,0.0
3610,-0.0004252814988899671,0.0
3611,-0.09550175163937633,0.0
3612,0.013422156615127405,0.0
3613,-0.017106504300760245,0.0
3614,0.024634129668225323,0.0
3615,-0.02917463594195201,0.0
3616,0.03571039788458698,0.0
3617,1.6179744991804719,0.0
3618,6.945230134853011,0.0
3619,-0.20630292398997566,0.0
3620,-0.9662894443270349,0.0
3621,0.7247405084848477,0.0
3622,-0.4016886853210856,0.0
3623,0.23546531037110074,0.0
3624,-0.08719270852301064,0.0
3625,0.10607100458760084,0.0
3626,0.013821833631364227,0.0
3627,0.08065609752004962,0.0
3628,0.018692333105720185,0.0
3629,0.013217705694505862,0.0
3630,0.006337384017084936,0.0
3631,0.02945261357360486,0.0
3632,-0.05837379876879363,0.0
3633,0.0748028820756631,0.0
3634,3.520445906393875,0.0
3635,6.340096532230317,0.0
3636,-2.714045382076541,0.0
3637,1.1299625218367255,0.0
3638,-0.4506111254130455,0.0
3639,0.0635364211503337,0.0
3640,-0.04794685327641449,0.0
3641,0.025724834084924226,0.0
3642,-0.02818549068878151,0.0
3643,0.0735433726283832,0.0
3644,-0.02159597293942022,0.0
3645,0.004870890900791059,0.0
3646,-0.03988641522434859,0.0
3647,-0.07657653262127662,0.0
3648,0.09338406046393039,0.0
3649,0.03616816034264403,0.0
3650,0.5921822636431716,0.0
3651,5.5001315935336885,0.0
3652,3.3675011013876146,0.0
3653,-2.751473486163952,0.0
3654,1.5564087725627167,0.0
3655,-0.7948584414640617,0.0
3656,0.3428224079700445,0.0
3657,-0.12626287503500294,0.0
3658,-0.030732345932661775,0.0
3659,0.012952110857020117,0.0
3660,-0.04360689597955761,0.0
3661,0.025848900375371336,0.0
3662,0.06495805890297202,0.0
3663,0.05251857291120402,0.0
3664,-0.08906021595602004,0.0
3665,-0.0065765589326490966,0.0
3666,-0.008840218736821823,0.0
3667,1.5793951637836814,0.0
3668,6.776263748882776,0.0
3669,-0.27815299067857746,0.0
3670,-0.9575349111420078,0.0
3671,0.6879226607658779,0.0
3672,-0.41829633855209497,0.0
3673,0.1509389178042794,0.0
3674,-0.16692285966257345,0.0
3675,-0.11411236484244285,0.0
3676,-0.07214060630866644,0.0
3677,-0.13820863027668476,0.0
3678,-0.040093289673603864,0.0
3679,-0.02202256456988079,0.0
3680,-0.07038093633320562,0.0
3681,0.007047317854372844,0.0
3682,0.04226586850143518,0.0
3683,0.10636454500574642,0.0
3684,3.4626079151808966,0.0
3685,6.167866531249901,0.0
3686,-2.640263111572193,0.0
3687,1.0886768897556316,0.0
3688,-0.34942969109635985,0.0
3689,0.018298118261938376,0.0
3690,-0.13396245302166337,0.0
3691,-0.014158528515140392,0.0
3692,0.016854202076934964,0.0
3693,-0.08854944211799017,0.0
3694,0.025729804781293046,0.0
3695,0.1473001573440764,0.0
3696,0.06656836047744605,0.0
3697,-0.006163820246517737,0.0
3698,0.09935165972353971,0.0
3699,-0.06429241749828885,0.0
3700,0.6728511756967749,0.0
3701,5.673828010430774,0.0
3702,3.405610944829784,0.0
3703,-2.646991700108219,0.0
3704,1.6824973988966847,0.0
3705,-0.7683958485101247,0.0
3706,0.3564605292486141,0.0
3707,-0.15508969795228633,0.0
3708,0.06751098284796131,0.0
3709,-0.11768751244973055,0.0
3710,-0.057072650331499546,0.0
3711,-0.10692502428989295,0.0
3712,-0.12284367223635602,0.0
3713,-0.07263652055392211,0.0
3714,-0.0353346486864752,0.0
3715,0.03022003904721276,0.0
3716,-0.0759295645032282,0.0
3717,1.553634765170326,0.0
3718,6.973212920565962,0.0
3719,-0.19698891500913282,0.0
3720,-0.891612320021889,0.0
3721,0.8320145943108188,0.0
3722,-0.3669927770620965,0.0
3723,0.23168592285830603,0.0
3724,0.07209489915538708,0.0
3725,0.022695418404034863,0.0
3726,0.0524707776583041,0.0
3727,0.03154460876386503,0.0
3728,-0.02872171357996468,0.0
3729,0.12476496200409166,0.0
3730,-0.0031738657598734776,0.0
3731,-0.005867046439176108,0.0
3732,0.03485826855574115,0.0
3733,0.08083511195315506,0.0
3734,3.510070741916608,0.0
3735,6.211506616117835,0.0
3736,-2.7559971220027957,0.0
3737,1.0856234830833587,0.0
3738,-0.3097188549413181,0.0
3739,0.1635110579531106,0.0
3740,-0.15769893289668596,0.0
3741,-0.02921619464715838,0.0
3742,0.027184422425675918,0.0
3743,-0.007215081860103445,0.0
3744,-0.13519413694659307,0.0
3745,-0.021825208431138565,0.0
3746,-0.022880258656504865,0.0
3747,-0.03588708429772239,0.0
3748,0.054617554883853586,0.0
3749,0.009849651926405158,0.0
3750,0.5414553138732355,0.0
3751,5.542996126288584,0.0
3752,3.462941635855015,0.0
3753,-2.7067852399274606,0.0
3754,1.553749671838705,0.0
3755,-0.817343174755791,0.0
3756,0.22505630037623237,0.0
3757,-0.13031274722781255,0.0
3758,0.04057760425889624,0.0
3759,0.0189453539021314,0.0
3760,0.039875786215379246,0.0
3761,-0.06555349386171572,0.0
3762,0.019618544281440418,0.0
3763,0.08202336327794246,0.0
3764,-0.0017068872326320536,0.0
3765,-0.07826350923231762,0.0
3766,-0.009140151958644569,0.0
3767,1.5678309874627956,0.0
3768,6.900856764864758,0.0
3769,-0.3817641428077746,0.0
3770,-0.9465264854472142,0.0
3771,0.6569657038349286,0.0
3772,-0.4075321509229833,0.0
3773,0.12014326678090546,0.0
3774,-0.020983882259927263,0.0
3775,0.002386967469809993,0.0
3776,-0.030824473560457897,0.0
3777,0.10962703573652927,0.0
3778,0.013532694491704479,0.0
3779,-0.06737316041977197,0.0
3780,0.046406588369611514,0.0
3781,-0.049174341626533696,0.0
3782,-0.008443966465417563,0.0
3783,0.13864187065647796,0.0
3784,3.5277944792546574,0.0
3785,6.199549737115122,0.0
3786,-2.7879117035003103,0.0
3787,1.0835518432135973,0.0
3788,-0.3994406809220138,0.0
3789,0.15582955904573226,0.0
3790,-0.06860386758394545,0.0
3791,-0.09521960538904051,0.0
3792,-0.07591791405762596,0.0
3793,-0.048070367830212776,0.0
3794,-0.11402417928936558,0.0
3795,-0.005894099672906036,0.0
3796,-0.04879837059420798,0.0
3797,-0.025664781247662968,0.0
3798,-0.08404199338504165,0.0
3799,-0.014258761093583296,0.0
3800,0.6161203000726204,0.0
3801,5.55956703085978,0.0
3802,3.3657929340076085,0.0
3803,-2.748620822780871,0.0
3804,1.5163022461149773,0.0
3805,-0.8294684221918729,0.0
3806,0.3003289170623015,0.0
3807,-0.051712407096168686,0.0
3808,-0.03292780570209994,0.0
3809,-0.07280442547762826,0.0
3810,-0.05403430312871211,0.0
3811,-0.021450981670265875,0.0
3812,-0.0648939624172957,0.0
3813,0.019504380557868996,0.0
3814,-0.002053248859084915,0.0
3815,0.08556564166698648,0.0
3816,-0.07925350089216623,0.0
3817,1.595573100614093,0.0
3818,6.892027535707256,0.0
3819,-0.3114931953073818,0.0
3820,-0.9130983099326238,0.0
3821,0.7207520890170173,0.0
3822,-0.3084677938295618,0.0
3823,0.21025458168681097,0.0
3824,-0.05302466106793528,0.0
3825,0.11281227890808268,0.0
3826,-0.06352934269480968,0.0
3827,0.07506388288022464,0.0
3828,0.03851479045270843,0.0
3829,-0.05120515957960895,0.0
3830,-0.0740160514528328,0.0
3831,-0.07429815502001458,0.0
3832,0.05694326930819253,0.0
3833,0.13351870824919873,0.0
3834,3.479050439102335,0.0
3835,6.276140605116083,0.0
3836,-2.8047220191474462,0.0
3837,1.0750525088295664,0.0
3838,-0.36396516578472865,0.0
3839,0.19013224126393846,0.0
3840,-0.03793315490996201,0.0
3841,0.07732312310575891,0.0
3842,0.05597033689287403,0.0
3843,0.06252585248428902,0.0
3844,0.013723408596658727,0.0
3845,0.08184992832552822,0.0
3846,0.0018461188995283456,0.0
3847,0.05711062561136845,0.0
3848,-0.021986125499205717,0.0
3849,-0.016200384002413956,0.0
3850,0.4673257613989972,0.0
3851,5.6008985060925065,0.0
3852,3.3002866312030794,0.0
3853,-2.693058180998422,0.0
3854,1.6510302335669207,0.0
3855,-0.7776795200713166,0.0
3856,0.3374008860122777,0.0
3857,-0.06934653516940623,0.0
3858,-0.022430210712885167,0.0
3859,-0.05853666080652607,0.0
3860,0.08555737612997259,0.0
3861,-0.022341667646445428,0.0
3862,-0.019015203313010022,0.0
3863,-0.05701839186186085,0.0
3864,-0.011932148146744724,0.0
3865,0.037361397615239926,0.0
3866,0.013498780123158532,0.0
3867,1.6903563403375268,0.0
3868,6.883878716927187,0.0
3869,-0.3111056401394629,0.0
3870,-0.9257787346533708,0.0
3871,0.6706947148133354,0.0
3872,-0.34811060086691653,0.0
3873,0.1880778459658487,0.0
3874,-0.12104885960821657,0.0
3875,0.05158114384486759,0.0
3876,0.06593872626534156,0.0
3877,0.05517816691591558,0.0
3878,0.020573000364127625,0.0
3879,0.03644224866313972,0.0
3880,-0.014533467445368799,0.0
3881,0.06654574001561377,0.0
3882,0.03523694583887822,0.0
3883,0.21344145872067202,0.0
3884,3.5443131826980725,0.0
3885,6.223309080306722,0.0
3886,-2.738851025663267,0.0
3887,1.1718262004147777,0.0
3888,-0.3696028433711101,0.0
3889,0.30146688977744507,0.0
3890,-0.02692887257137362,0.0
3891,0.019209353849329064,0.0
3892,-0.03561899942925807,0.0
3893,0.010410505701213196,0.0
3894,-0.03897932524064214,0.0
3895,0.05813602385937258,0.0
3896,0.03395893863428149,0.0
3897,0.064460864913358,0.0
3898,0.0022698997214367043,0.0
3899,0.026820487114161226,0.0
3900,0.5946158256212751,0.0
3901,5.581821158087494,0.0
3902,3.3640839541871403,0.0
3903,-2.6941062903434196,0.0
3904,1.5898924321946097,0.0
3905,-0.781024988591928,0.0
3906,0.31276798424220753,0.0
3907,-0.12969788808963872,0.0
3908,0.07971151762583269,0.0
3909,0.1133614281456159,0.0
3910,0.06693251978837297,0.0
3911,0.05697214563547764,0.0
3912,0.09553342603600329,0.0
3913,0.06477111578795737,0.0
3914,0.040393997610868516,0.0
3915,0.16426225657036847,0.0
3916,0.0256246274625778,0.0
3917,1.717754464735894,0.0
3918,6.895082812380087,0.0
3919,-0.27332450072804826,0.0
3920,-0.7942623064801009,0.0
3921,0.810293004528074,0.0
3922,-0.3580495530072202,0.0
3923,0.1526216707404901,0.0
3924,0.13158220717564723,0.0
3925,0.07097997256914693,0.0
3926,0.02029391853867573,0.0
3927,0.0854476625326879,0.0
3928,0.04611595548822106,0.0
3929,0.11418689228837584,0.0
3930,0.061876024160339035,0.0
3931,0.06396104878463359,0.0
3932,-0.007122707020826277,0.0
3933,0.07613897224824026,0.0
3934,3.5622658633442783,0.0
3935,6.1675291970757415,0.0
3936,-2.763606070013452,0.0
3937,1.1440663364015111,0.0
3938,-0.35857494894284614,0.0
3939,0.1487767254172533,0.0
3940,0.06643727289277668,0.0
3941,0.12215964277954058,0.0
3942,0.06698381588387267,0.0
3943,0.1044944465122975,0.0
3944,0.08532358014021943,0.0
3945,0.07982443789818046,0.0
3946,0.10777928559871983,0.0
3947,0.03304719940242518,0.0
3948,0.104211215659622,0.0
3949,0.055086124542675696,0.0
3950,0.6671754063520097,0.0
3951,5.7556182258481625,0.0
3952,3.316203828412933,0.0
3953,-2.663507420350366,0.0
3954,1.561347771982896,0.0
3955,-0.8435271362944862,0.0
3956,0.3787447212307199,0.0
3957,-0.016690523493591125,0.0
3958,0.0049012438790957125,0.0
3959,0.06263476492593034,0.0
3960,-0.023804348150061896,0.0
3961,0.21479523235901854,0.0
3962,0.16007982364832155,0.0
3963,0.11823484515369018,0.0
3964,-0.006100494226516907,0.0
3965,0.010709453558537481,0.0
3966,0.02884613527930878,0.0
3967,1.8139650203567832,0.0
3968,7.008766211756442,0.0
3969,-0.2531704750655049,0.0
3970,-0.7474053302199447,0.0
3971,0.7609073436063697,0.0
3972,-0.3157540591054938,0.0
3973,0.34265251798327484,0.0
3974,0.13187754325787626,0.0
3975,0.1568099880190629,0.0
3976,0.25642313770995834,0.0
3977,0.06779248099478655,0.0
3978,0.023530301406560178,0.0
3979,0.1107866297091346,0.0
3980,0.09334244038743927,0.0
3981,0.0892680740391726,0.0
3982,0.17612546515645428,0.0
3983,0.1183745899930086,0.0
3984,3.528533543714757,0.0
3985,6.205712201781278,0.0
3986,-2.632299788660019,0.0
3987,1.0951014915239607,0.0
3988,-0.3333539899105024,0.0
3989,0.15271134657204016,0.0
3990,0.07132841623375047,0.0
3991,0.10611578645673705,0.0
3992,0.07783456825355262,0.0
3993,0.015840696882939764,0.0
3994,0.004641267272377618,0.0
3995,-0.022811345272866157,0.0
3996,0.133471018683321,0.0
3997,0.04316194374307772,0.0
3998,0.07593486784633972,0.0
3999,0.07946929023576228,0.0
4000,0.6258773225792833,0.0
4001,5.747762108062752,0.0
4002,3.3628563468047252,0.0
4003,-2.6380217313013072,0.0
4004,1.6283427319475368,0.0
4005,-0.7050871098236647,0.0
4006,0.357467597448966,0.0
4007,0.0037438156951659918,0.0
4008,0.08766736985886533,0.0
4009,0.13391921306755605,0.0
4010,0.04937120821607617,0.0
4011,0.12394550598851499,0.0
4012,0.08303081102804331,0.0
4013,0.01336651358925052,0.0
4014,0.012263432993409637,0.0
4015,0.012419058835926547,0.0
4016,0.10524333609874455,0.0
4017,1.6858194290192499,0.0
4018,7.046431012702482,0.0
4019,-0.31001047195987036,0.0
4020,-0.7771427151143421,0.0
4021,0.734420344689461,0.0
4022,-0.26707326505640216,0.0
4023,0.2060607614751803,0.0
4024,0.05667664017153018,0.0
4025,0.07851072045427751,0.0
4026,-0.0004152835430001195,0.0
4027,0.01612113485400924,0.0
4028,0.010020410682060318,0.0
4029,0.09921268782879385,0.0
4030,0.06148834818944472,0.0
4031,0.14224916515455088,0.0
4032,-0.007568379982707089,0.0
4033,0.12217006289775334,0.0
4034,3.6713236697242344,0.0
4035,6.163418341530599,0.0
4036,-2.787790872716631,0.0
4037,1.1973626738104213,0.0
4038,-0.4617986301754099,0.0
4039,0.1356629524372879,0.0
4040,-0.07432805198630973,0.0
4041,0.05070874365858531,0.0
4042,0.04648352099563573,0.0
4043,0.059185598408204254,0.0
4044,-0.02259548323521688,0.0
4045,-0.020730620326222304,0.0
4046,-0.012991958712072142,0.0
4047,0.0691305411783316,0.0
4048,-0.008095098732019908,0.0
4049,-0.010096950462022775,0.0
4050,0.5549286598747876,0.0
4051,5.756569322614396,0.0
4052,3.3887136800185567,0.0
4053,-2.669106803759896,0.0
4054,1.611558199104938,0.0
4055,-0.7718040512711566,0.0
4056,0.32506484029685645,0.0
4057,-0.048901160925450375,0.0
4058,0.020338330630595855,0.0
4059,-0.006691199739956345,0.0
4060,0.09673122884586816,0.0
4061,-0.0005980473075486922,0.0
4062,0.19919787707875125,0.0
4063,0.0065779732214624916,0.0
4064,0.03289773540473786,0.0
4065,0.05634474413217185,0.0
4066,0.06223719071054967,0.0
4067,1.709110442381089,0.0
4068,7.020879433502566,0.0
4069,-0.35848905008684284,0.0
4070,-0.8192822229885828,0.0
4071,0.8206795187883645,0.0
4072,-0.2776546935099546,0.0
4073,0.1743661186936149,0.0
4074,-0.06632277203059844,0.0
4075,0.06449293709938389,0.0
4076,0.046443772082815214,0.0
4077,0.12246878440629347,0.0
4078,0.09000772446948097,0.0
4079,-0.013154160075803945,0.0
4080,0.034962655811901444,0.0
4081,0.0008098003201207002,0.0
4082,0.0018384519363692994,0.0
4083,0.21590399943933059,0.0
4084,3.55637769205398,0.0
4085,6.174989720938759,0.0
4086,-2.793760044398594,0.0
4087,1.1562301554684673,0.0
4088,-0.4034763637211486,0.0
4089,0.2190485033412696,0.0
4090,-0.04174656808116668,0.0
4091,0.20162800857637972,0.0
4092,0.04596236948106814,0.0
4093,-0.009468315322288597,0.0
4094,0.04016754833000343,0.0
4095,0.07412439159580175,0.0
4096,0.04565962561301204,0.0
4097,0.04772463229536242,0.0
4098,0.04226502277773016,0.0
4099,0.08421509711314085,0.0
4100,0.5707722691259633,0.0
4101,5.76303346424329,0.0
4102,3.304586690485749,0.0
4103,-2.567136651076029,0.0
4104,1.596301648946388,0.0
4105,-0.7162950769637972,0.0
4106,0.37547169831795474,0.0
4107,-0.12602088661822317,0.0
4108,0.20951299313891994,0.0
4109,0.06680308486705526,0.0
4110,-0.05505882530397718,0.0
4111,0.19043224671214792,0.0
4112,0.018956451853856887,0.0
4113,0.0611418457185811,0.0
4114,-0.029516159485053622,0.0
4115,0.14491977408005405,0.0
4116,0.022228752966781007,0.0
4117,1.785095455757393,0.0
4118,6.910841435968052,0.0
4119,-0.4301495188148601,0.0
4120,-0.8681301806619133,0.0
4121,0.6985741243605383,0.0
4122,-0.2757747545787672,0.0
4123,0.1658304226968878,0.0
4124,-0.07190537393551258,0.0
4125,0.060211241238130694,0.0
4126,-0.017870753237992927,0.0
4127,0.04962893634347942,0.0
4128,-0.02390388171828074,0.0
4129,-0.05550862091682721,0.0
4130,0.011710277549487433,0.0
4131,0.03404680745943615,0.0
4132,0.031800538684976204,0.0
4133,0.2336705553945435,0.0
4134,3.676843527227061,0.0
4135,6.092678311250334,0.0
4136,-2.7616576287443557,0.0
4137,1.293219235466835,0.0
4138,-0.2809029180285681,0.0
4139,0.19313627741173825,0.0
4140,0.010649494589904506,0.0
4141,0.08864154705775396,0.0
4142,0.06987742255584414,0.0
4143,-0.044238962549086436,0.0
4144,0.04493699780405966,0.0
4145,0.09745595029032439,0.0
4146,0.031219118549487855,0.0
4147,0.0068689729620026035,0.0
4148,-0.0035392017394802813,0.0
4149,0.04259670644779879,0.0
4150,0.6480261980345028,0.0
4151,5.802861814829921,0.0
4152,3.246321420092207,0.0
4153,-2.6432273952598457,0.0
4154,1.5765956626749238,0.0
4155,-0.8006703663073047,0.0
