timestamp,value-0,is_anomaly
0,0.259468100195373,0
1,4.522845713502317,0
2,5.053480364103249,0
3,-2.9869720957307577,0
4,1.4805153412462988,0
5,-0.8025914529797284,0
6,0.2493295590638021,0
7,-0.04854380607361719,0
8,0.057780815856189605,0
9,0.04058046340523899,0
10,-0.017704091748844124,0
11,-0.08656361556655448,0
12,-0.026354879489517785,0
13,-0.011509855768387624,0
14,0.03481863630939646,0
15,0.0349069610437923,0
16,-0.005863066493680088,0
17,0.9356803969349938,0
18,6.4106789423022565,0
19,1.5089072285147453,0
20,-1.9162130140493674,0
21,1.1983670483093385,0
22,-0.7588486177929544,0
23,0.2846344913190969,0
24,-0.10012277653998576,0
25,0.062423248222698784,0
26,0.022822350804218433,0
27,-0.022203877486916143,0
28,0.03616420023559908,0
29,-0.15180664016841539,0
30,-0.0431969988731379,0
31,-0.06102240681002084,0
32,0.0784989979577029,0
33,0.0038922727789322056,0
34,2.3948715827216422,0
35,6.845150629223934,0
36,-1.7875772827742582,0
37,0.22046978407750545,0
38,0.2220666521703036,0
39,-0.27507249103119746,0
40,0.07990261820194908,0
41,0.0444297662921433,0
42,-0.0558972418996079,0
43,0.01848101059132415,0
44,0.015498891107693577,0
45,0.04808233890159674,0
46,-0.12854088876750056,0
47,-0.07798894785562421,0
48,-0.06847652523811712,0
49,-0.07725425858694233,0
50,0.20626557022488173,0
51,4.512383852183522,0
52,4.988646231688678,0
53,-3.1077486865800075,0
54,1.4511588450714175,0
55,-0.8285295650528639,0
56,0.24457822536640975,0
57,-0.14286011697081957,0
58,0.04542651466737714,0
59,-0.11567527107884723,0
60,-0.05731022047758577,0
61,0.002310694082361911,0
62,0.0324253853339557,0
63,-0.08298755130416301,0
64,-0.06936520135557325,0
65,-0.002629298039955985,0
66,0.025111482385487764,0
67,0.9638418810846912,0
68,6.361119357352017,0
69,1.502383452738478,0
70,-1.9600463584831687,0
71,1.2499808745791814,0
72,-0.6706337476053226,0
73,0.2541523752883819,0
74,-0.08786382657507627,0
75,0.0018886665803918134,0
76,0.0007255014704727909,0
77,-0.0445050154052956,0
78,-0.06143367570016013,0
79,0.03266266282686531,0
80,-0.03129455264462274,0
81,0.027076248069452805,0
82,-0.07482796046024358,0
83,0.005023618401696647,0
84,2.5077612367577946,0
85,6.865524967698259,0
86,-1.8060837996267667,0
87,0.15462278296068524,0
88,0.11521850412882,0
89,-0.15834291506849568,0
90,0.0430485166779832,0
91,-0.02091381196325726,0
92,-0.06579995474704974,0
93,-0.03396954456933893,0
94,-0.031144369523987588,0
95,-0.010463172896581455,0
96,-0.06280473908897193,0
97,0.016932152456150686,0
98,-0.008148100041154658,0
99,0.07299644635692722,0
100,0.250669358678935,0
101,4.570119195553313,0
102,4.968353157547313,0
103,-3.0222547918449245,0
104,1.512285178099346,0
105,-0.648468933943821,0
106,0.26170012106994667,0
107,-0.14384309398698183,0
108,0.02269002136084089,0
109,-0.043401155577809956,0
110,0.06972646776182558,0
111,0.03148933699868077,0
112,-0.04246807956468392,0
113,-0.09827390305488148,0
114,0.03588834394170307,0
115,-0.061924354234973354,0
116,-0.07929110150151325,0
117,0.9423849043344387,0
118,6.435623297328611,0
119,1.4605615029648955,0
120,-1.876171641888294,0
121,1.334484215418598,0
122,-0.5887943702359711,0
123,0.3380314968399711,0
124,-0.05742068911581394,0
125,-0.0025374469048835505,0
126,-0.12659050945553307,0
127,0.0006860594057227602,0
128,-0.062219333787388566,0
129,-0.027462057031800987,0
130,0.017992929245998764,0
131,-0.0052183903165256215,0
132,0.007771875464884033,0
133,0.06021127496127599,0
134,2.5598299644311875,0
135,6.8926281290169715,0
136,-1.7144442680906686,0
137,0.12695858729728893,0
138,0.17972535132249914,0
139,0.023091277765722854,0
140,0.025891840807236034,0
141,-0.09606923049888709,0
142,0.032747566523708777,0
143,0.011747236902123483,0
144,-0.07846703048379844,0
145,-0.013739581763294349,0
146,0.028147695420584373,0
147,-0.064496272821949,0
148,0.0338860617381468,0
149,0.019789367708398217,0
150,0.2876598283836452,0
151,4.607975852905478,0
152,4.876715714869871,0
153,-3.0140818659947803,0
154,1.5589872650414718,0
155,-0.6660797889581523,0
156,0.31333811696340663,0
157,-0.07087476743831397,0
158,0.11207050146693398,0
159,0.05902913806271922,0
160,0.02374100004809365,0
161,-0.06401673261899468,0
162,0.010889309331257768,0
163,0.07600582923872942,0
164,0.02314755483286201,0
165,-0.01989722963452152,0
166,-0.03985100891449322,0
167,1.0624730494391739,0
168,6.493907214965717,0
169,1.5004081614175857,0
170,-1.8614844076086563,0
171,1.200442153774134,0
172,-0.6857008213743795,0
173,0.27859989854905925,0
174,-0.11751395257133795,0
175,0.02337640088404876,0
176,-0.009999641487497643,0
177,0.020355980443735915,0
178,0.016556294553538946,0
179,-0.05361282900603838,0
180,-0.146426605701383,0
181,0.0329593249461494,0
182,-0.015188316879495213,0
183,-0.046431432744070876,0
184,2.491917894380963,0
185,6.878094393815773,0
186,-1.801155981542342,0
187,0.25862774171263664,0
188,0.2220362667874904,0
189,-0.1390439724584105,0
190,0.008260901802671205,0
191,0.003969744558607113,0
192,0.002856874095167067,0
193,0.08569901160238862,0
194,-0.04351525963707816,0
195,0.059935671008171695,0
196,-0.08938005746740729,0
197,-0.12222737790003797,0
198,-0.11281690865825553,0
199,0.00469708146052061,0
200,0.21144902752751596,0
201,4.7102437218791415,0
202,4.915847169218454,0
203,-2.9969314230931907,0
204,1.5478306898782797,0
205,-0.7312883563063463,0
206,0.3247729304929895,0
207,-0.017561126177067538,0
208,0.030492423072766898,0
209,-0.00850508875998273,0
210,0.0054215244973533396,0
211,0.02344399491713765,0
212,0.011765330569838011,0
213,0.038491993673635524,0
214,0.0307579288585756,0
215,-0.054038456159671434,0
216,-0.025446677937933905,0
217,1.065678231749849,0
218,6.390319024978781,0
219,1.3670254726579945,0
220,-1.9584099369347139,0
221,1.2099549406089078,0
222,-0.6426053582348579,0
223,0.28271970603609164,0
224,-0.13038818391924606,0
225,0.04535517106492321,0
226,0.009965071503028215,0
227,-0.0248017256648419,0
228,0.014176925281977726,0
229,0.0037732249155920244,0
230,0.029381985359696296,0
231,-0.05511074567859352,0
232,0.00674722919296997,0
233,0.08123586358629299,0
234,2.4717250941106736,0
235,6.844905877557937,0
236,-1.7865121785451734,0
237,0.21504543481058108,0
238,0.15889818183298784,0
239,-0.14801520870316076,0
240,0.0732321019402145,0
241,0.04123039719072266,0
242,-0.06870534282986931,0
243,0.0023143195857109333,0
244,-0.047208718795424424,0
245,0.056158324323602564,0
246,0.09243006050646806,0
247,0.06508380429510566,0
248,-0.03807100902692377,0
249,0.11443611730518609,0
250,0.2872188277673559,0
251,4.711445347545018,0
252,4.994829783820666,0
253,-3.011173532160934,0
254,1.6002932600737196,0
255,-0.6704295254251268,0
256,0.23649717240411952,0
257,-0.1322210690558753,0
258,-0.04847090929008539,0
259,-0.09628311201331488,0
260,-0.018120892462155928,0
261,-0.13188195696209293,0
262,-0.10223784439475037,0
263,-0.037264443696482574,0
264,-0.029264556868808776,0
265,-0.06054805985385833,0
266,-0.05300310668106506,0
267,1.0509828981345544,0
268,6.414416813852117,0
269,1.402766818143458,0
270,-2.0429478394793668,0
271,1.1145565574403253,0
272,-0.686500899256056,0
273,0.27277959819448827,0
274,-0.09066833001402934,0
275,-0.08135669033381066,0
276,-0.06498012444524862,0
277,-0.1299581451305069,0
278,0.03941633842955059,0
279,-0.037754376344617174,0
280,-0.018485775943650397,0
281,-0.03039006038776489,0
282,0.017822881506921868,0
283,0.015029660543509179,0
284,2.540236722815629,0
285,6.83033732586909,0
286,-1.8173237829886364,0
287,0.3542187144482937,0
288,0.11341157799994428,0
289,-0.17912419016675654,0
290,-0.016266725627579696,0
291,0.012274441987680271,0
292,0.03770295614407369,0
293,-0.12094210004941569,0
294,-0.003030341252771511,0
295,-0.10443833158609368,0
296,-0.08371838089066187,0
297,0.01801762513061251,0
298,-0.016884375647754166,0
299,-0.044991759145053906,0
300,0.2527514295088696,0
301,4.622275159544157,0
302,4.878299187800914,0
303,-3.001777516865733,0
304,1.4676470460152193,0
305,-0.7597856965114986,0
306,0.3398903589158056,0
307,-0.133445740565659,0
308,0.008485498970766225,0
309,0.027985159345828087,0
310,-0.05315529709692025,0
311,-0.0629813327659549,0
312,0.026543815485264754,0
313,-0.009064062326404996,0
314,0.03666392374099615,0
315,-0.06677705251990024,0
316,0.04837901017223643,0
317,0.9369294580416525,0
318,6.518522943032512,0
319,1.4275721582102003,0
320,-1.9329052452718138,0
321,1.1683549612696553,0
322,-0.6024511225256071,0
323,0.2338204891598644,0
324,-0.18130162240829817,0
325,-0.008629659230215816,0
326,-0.09276010003757076,0
327,0.09459219387148128,0
328,0.02151675809648394,0
329,-0.01982787087822324,0
330,-0.015601537657478744,0
331,-0.000891361481810779,0
332,0.03743843574719297,0
333,0.10739404028219383,0
334,2.6429430687873414,0
335,6.870865464259643,0
336,-1.909707666997417,0
337,0.3488408902756178,0
338,0.07238919207299427,0
339,-0.07077389180433252,0
340,-0.05509281625618786,0
341,-0.049670415471398166,0
342,0.010147835166258314,0
343,0.0012802955041926883,0
344,-0.011007381657919459,0
345,-0.029684596972041313,0
346,-0.0102999086166358,0
347,0.05278893206354297,0
348,0.045730708202293247,0
349,0.10980993564333108,0
350,0.2813550854184226,0
351,4.611535384049427,0
352,4.8701868866957,0
353,-3.0149342887550294,0
354,1.527864633991187,0
355,-0.7597491044112399,0
356,0.2968156795753536,0
357,-0.0861550873865419,0
358,-0.012000978347707442,0
359,-0.002074455844362752,0
360,-0.024482668479671968,0
361,-0.0032408310216345184,0
362,-0.07508221026785009,0
363,0.11553375657131333,0
364,0.07306812978567002,0
365,0.010893513846173696,0
366,-0.00441684161038113,0
367,1.0358649743052741,0
368,6.505620869419804,0
369,1.358465800360206,0
370,-1.889539970649773,0
371,1.2922619584327926,0
372,-0.5908121294857067,0
373,0.2636212750361991,0
374,-0.14305756570761108,0
375,0.048817530638697884,0
376,-0.02199879455437187,0
377,0.014944589416419532,0
378,-0.08553147139139974,0
379,-0.03199995859665408,0
380,-0.07819420964760965,0
381,0.0042503571669063114,0
382,-0.09359976764427566,0
383,-0.049277496184746236,0
384,2.6193901111608935,0
385,6.888926685441671,0
386,-1.9435486917702558,0
387,0.18182453081022673,0
388,0.16787205320419724,0
389,-0.16814541170360145,0
390,0.035150853777780454,0
391,-0.06547765234651283,0
392,0.029824025934704138,0
393,0.14453514787742114,0
394,0.09505706079793057,0
395,0.09900002395110943,0
396,0.07408484201100354,0
397,0.0522502827107328,0
398,-0.09088147454105835,0
399,0.03046486398748764,0
400,0.2365063539104767,0
401,4.764691420510842,0
402,4.7402905699962865,0
403,-2.9561412500241975,0
404,1.6167623804782683,0
405,-0.6199361953399758,0
406,0.3796790622179173,0
407,-0.15003730266393278,0
408,0.05234943487444296,0
409,-0.0032811146741898306,0
410,0.08681614816847931,0
411,-0.08520496116499506,0
412,0.04477003711893984,0
413,0.03306674939035045,0
414,-0.035447143204673875,0
415,0.04240034130204973,0
416,0.05208424866424978,0
417,1.0729621191376195,0
418,6.491773380005879,0
419,1.4101757797065433,0
420,-1.8605710456838371,0
421,1.2393958703600478,0
422,-0.5914449352455802,0
423,0.3013252424388098,0
424,-0.031086857736660152,0
425,0.0800283792719674,0
426,0.00845134419049661,0
427,0.0037992855771486617,0
428,0.05803800559249902,0
429,0.010115252781101031,0
430,-0.029806466809182655,0
431,-0.0033396298806617312,0
432,-0.044573502715593856,0
433,0.09418464318008848,0
434,2.5881428865436353,0
435,6.95100274674885,0
436,-2.01832202779993,0
437,0.35056009135973537,0
438,0.1197689308984069,0
439,-0.08363239654385227,0
440,0.05391472461647744,0
441,0.02925650723887903,0
442,-0.007535773237811214,0
443,0.15589258016050733,0
444,0.0433290180231826,0
445,0.00011426405099713587,0
446,0.05108233858884065,0
447,0.08595187084921184,0
448,-0.0338479102822535,0
449,-0.045677881263352905,0
450,0.205833284353309,0
451,4.797919736593043,0
452,4.752117998193034,0
453,-3.0831500198151858,0
454,1.5494156070105882,0
455,-0.7081812700422468,0
456,0.24586259367712276,0
457,-0.11201142730571603,0
458,-0.012758376108973825,0
459,-0.10786745514349128,0
460,-0.06906575032133072,0
461,-0.007342816388158707,0
462,-0.10782405394313234,0
463,-0.11116397977024484,0
464,4.4061485026215125e-05,0
465,0.09697647128398178,0
466,-0.07012289601860189,0
467,1.020178371359629,0
468,6.480534501812423,0
469,1.2756176278886673,0
470,-1.8694466021459057,0
471,1.1507077669888028,0
472,-0.6389270585809445,0
473,0.2428731526534143,0
474,-0.17713501832157885,0
475,0.012241483519513742,0
476,0.020017852052727124,0
477,-0.025521011703767638,0
478,-0.03528137668073701,0
479,-0.04475609036686893,0
480,0.01981404408464959,0
481,-0.008831284237559581,0
482,-0.06972840903958952,0
483,-0.051798870866432936,0
484,2.599950436878732,0
485,6.75460555048726,0
486,-2.0041975515498263,0
487,0.2024111210946375,0
488,0.04854065714998872,0
489,-0.02948809960818191,0
490,0.015351136371751596,0
491,0.0442128534986654,0
492,-0.016405410490120065,0
493,-0.09362879505902999,0
494,-0.062549310751975,0
495,0.026131561892342076,0
496,-0.003413424414536381,0
497,-0.07558618909053126,0
498,0.08466160881609885,0
499,-0.06917775825793035,0
500,0.3770727508479982,0
501,4.685227964733012,0
502,4.787054684198432,0
503,-3.0802646432360263,0
504,1.5665622831157724,0
505,-0.7439049413606332,0
506,0.30201872621580333,0
507,-0.004184654410409341,0
508,0.06494253067094058,0
509,0.06326908457925859,0
510,0.0014795379853771843,0
511,0.020358521445222752,0
512,0.19208203154092302,0
513,0.01310808378911691,0
514,0.01786462414999487,0
515,-0.029192792087357023,0
516,0.07384956352282489,0
517,1.021059924495776,0
518,6.583136607366255,0
519,1.2214077644399293,0
520,-1.8201611429905378,0
521,1.1177758788043521,0
522,-0.5847275383511318,0
523,0.27405673609627457,0
524,-0.1306274327096193,0
525,0.012091555442077559,0
526,-0.0018667159664393761,0
527,-0.061296038191727464,0
528,-0.07883990956342107,0
529,0.0038593777017337377,0
530,-0.05595806866496218,0
531,-0.07508172027775459,0
532,0.014529515828455259,0
533,0.05871225697875242,0
534,2.657925411141989,0
535,6.726032221520582,0
536,-1.9618305407257048,0
537,0.35010692608100485,0
538,0.09756751667162761,0
539,-0.12730643417783094,0
540,0.006203525969153964,0
541,-0.006119361010435002,0
542,0.00214441075734707,0
543,-0.10236366751283485,0
544,-0.014071173777145982,0
545,0.06369859775475867,0
546,-0.04839722327068459,0
547,0.024080613691616747,0
548,-0.053085889508680754,0
549,-0.013704007173813097,0
550,0.3510740129391915,0
551,4.702878885147978,0
552,4.678853679670017,0
553,-3.0243328857093856,0
554,1.5302357961465383,0
555,-0.8042571277706339,0
556,0.2656190127637459,0
557,-0.09777858989943486,0
558,-0.038679640071921484,0
559,-0.054494794590451506,0
560,0.03055796848067796,0
561,-0.025512769230002865,0
562,0.07507099428485535,0
563,-0.024028875222694417,0
564,0.08512281127748743,0
565,-0.010645215098586047,0
566,-0.035646418803152655,0
567,1.1506698314545183,0
568,6.607945453310667,0
569,1.3463023180677491,0
570,-1.7727811253970736,0
571,1.2007065470844756,0
572,-0.5076646059889245,0
573,0.3103776903365146,0
574,-0.10302562767449851,0
575,-0.062047524203772735,0
576,0.05500277457526229,0
577,-0.06477408832760545,0
578,0.08033043323815207,0
579,0.07498545936796931,0
580,0.03404626283942128,0
581,0.010841588990100706,0
582,0.03943174909664815,0
583,0.07440614180414763,0
584,2.6431587639244265,0
585,6.902350864232349,0
586,-1.9257081959817042,0
587,0.45712499676393026,0
588,0.009857618538053795,0
589,-0.017372774681403212,0
590,0.03556252784592167,0
591,0.06833934077541545,0
592,-0.0035411458514782584,0
593,0.028711196275081903,0
594,0.10042441065132363,0
595,0.06391263228714994,0
596,0.05818086311488464,0
597,0.02698802308149037,0
598,0.06599866068726976,0
599,0.030873169107333093,0
600,0.38758201615963095,0
601,4.765223305473707,0
602,4.7847443752339345,0
603,-2.9162044872398356,0
604,1.6696849609019333,0
605,-0.8306074729288149,0
606,0.293406720249935,0
607,-0.09629268906143443,0
608,0.04059595293726775,0
609,-0.014543285228571994,0
610,-0.08292943786444028,0
611,-0.08979704595618707,0
612,0.021783671165666926,0
613,0.017856417619154945,0
614,0.03648590608372796,0
615,0.11873054914675579,0
616,0.10060748670876556,0
617,1.0903990405362378,0
618,6.624883149544246,0
619,1.388070269332341,0
620,-1.7071089461940674,0
621,1.2717829198726829,0
622,-0.5734466759230828,0
623,0.41346544208412095,0
624,-0.10176673446311343,0
625,0.05912765536849117,0
626,0.06507873486162377,0
627,0.05103611563473641,0
628,0.08195138433689386,0
629,0.07106287919449802,0
630,0.04415829907944639,0
631,0.10023653089031431,0
632,-0.05772732315387317,0
633,0.06663418058192626,0
634,2.688468641857894,0
635,6.772343070046413,0
636,-1.9908939904450507,0
637,0.3282059199238377,0
638,0.05573312020655487,0
639,0.029938954603367,0
640,-0.01984983249826794,0
641,-0.023985433261709047,0
642,-0.03360629763051262,0
643,0.05222259299209913,0
644,0.07805306049528678,0
645,-0.12016189454598347,0
646,0.010634041609081747,0
647,-0.004115760753287009,0
648,-0.024510939273683675,0
649,0.11187425558094638,0
650,0.32326422992060927,0
651,4.702960300488537,0
652,4.768384432807328,0
653,-2.9494372597259106,0
654,1.595018553477617,0
655,-0.7979818080887924,0
656,0.3355085885780399,0
657,-0.04033228399001905,0
658,-0.03948062386987615,0
659,-0.04230505557687057,0
660,0.007175148095484337,0
661,-0.024844364304885826,0
662,0.03479682828429298,0
663,0.06919774080687728,0
664,0.08225526398419722,0
665,-0.09257162197692068,0
666,-0.06635043444041362,0
667,1.033657577314521,0
668,6.700945395062649,0
669,1.2607953953720274,0
670,-1.750653379251052,0
671,1.2600885256640793,0
672,-0.5318305345928794,0
673,0.3063916563745882,0
674,-0.03454191295710265,0
675,0.08191178567077204,0
676,-0.06527605042834797,0
677,0.06144460144206995,0
678,0.009355767631276803,0
679,0.039937421955734353,0
680,0.03935661157956738,0
681,-0.06380896254096344,0
682,0.04776005110991833,0
683,0.03270857959717906,0
684,2.684356868028674,0
685,6.785441149393372,0
686,-2.021789060810911,0
687,0.3207890804625797,0
688,0.10729731088332384,0
689,-0.1290776856553958,0
690,0.030549541728295507,0
691,0.05277777559154636,0
692,-0.056047121489167254,0
693,-0.02487063762896195,0
694,0.049910312862527756,0
695,0.07557750040680847,0
696,0.09306014646473815,0
697,-0.04134801572860066,0
698,-0.004304904426216019,0
699,0.0668659981866575,0
700,0.2554099076055379,0
701,4.822345404054946,0
702,4.7360719265744295,0
703,-2.9302973473238456,0
704,1.5677906480534005,0
705,-0.7077439272627278,0
706,0.34482268567363117,0
707,-0.14262090242477493,0
708,0.05581403517017906,0
709,-0.0295387498339192,0
710,0.050362706392997475,0
711,0.09417388895866265,0
712,0.07656613709430196,0
713,0.028601753976328016,0
714,-0.0017705930234925022,0
715,-0.0582950286931935,0
716,-0.06679405411219685,0
717,1.2051884197514597,0
718,6.4964065616263085,0
719,1.2302976499238676,0
720,-1.658629436191468,0
721,1.19285755814546,0
722,-0.6321331994995129,0
723,0.2901921164776386,0
724,-0.08828623560636473,0
725,0.0023684652271123083,0
726,0.016215708088493833,0
727,0.06063518752629146,0
728,0.061090169243348,0
729,0.07530520113618774,0
730,0.03096222899015097,0
731,0.1122067021619047,0
732,0.034579378218005836,0
733,0.045585113232682405,0
734,2.6512632372552027,0
735,6.857527042144787,0
736,-2.004393146645687,0
737,0.4169884598197804,0
738,0.10230482339985243,0
739,-0.08786725398683232,0
740,0.10524519170825769,0
741,0.07695370455133516,0
742,0.06413722653026091,0
743,0.06168237408046534,0
744,-0.01421513722173516,0
745,-0.007264057721723689,0
746,0.03533835217233588,0
747,-0.003973377277526613,0
748,-0.0032004982850529036,0
749,0.036610782105788116,0
750,0.3384363780118348,0
751,4.865215903802714,0
752,4.645981106137953,0
753,-2.969800189442513,0
754,1.5817365408892614,0
755,-0.7302845894370938,0
756,0.3097333685850347,0
757,-0.16505856866442176,0
758,-0.007748399294183937,0
759,-0.12482326279207609,0
760,-0.019764251481127367,0
761,-0.005672511190059324,0
762,-0.0010377615918586228,0
763,0.03398485454359054,0
764,-0.08182136200607548,0
765,0.09103408787261968,0
766,0.027737693720420443,0
767,1.1774161994019718,0
768,6.51597781794264,0
769,1.246323193882623,0
770,-1.7839534621383737,0
771,1.2708528201092544,0
772,-0.5263732728351037,0
773,0.33819155420673014,0
774,-0.028705660215575635,0
775,0.06800609098918395,0
776,-0.030215746129703326,0
777,0.0667652095586389,0
778,0.13394328347094997,0
779,0.04722264143659592,0
780,0.05648090415259557,0
781,0.10311924199779499,0
782,0.08663199849215815,0
783,0.039922759222959715,0
784,2.7428331825117604,0
785,6.811066594821887,0
786,-2.037696705695036,0
787,0.3738268839396726,0
788,0.011654779578763486,0
789,-0.09684036797228943,0
790,0.025286290289736772,0
791,0.09748221569587898,0
792,0.01970212114571729,0
793,-0.02605797547013804,0
794,0.031007100563634808,0
795,-0.0687992493518839,0
796,0.055844795369133435,0
797,-0.023385608695661246,0
798,0.03313733745720423,0
799,0.048050959230885586,0
800,0.33004342725345837,0
801,4.800738692351615,0
802,4.709563041319903,0
803,-2.948639059393758,0
804,1.5521808715654637,0
805,-0.8628867804697364,0
806,0.27982596793520376,0
807,-0.029851074152885293,0
808,-0.03703531840278448,0
809,-0.020639993666462273,0
810,0.03602881026161384,0
811,0.08081779905345786,0
812,0.164133915005611,0
813,0.01072187312174526,0
814,-0.07921344535073402,0
815,-0.0428859353159228,0
816,0.01966352363986652,0
817,1.2126179850381464,0
818,6.555345510689511,0
819,1.1994623846426404,0
820,-1.7821429661637243,0
821,1.166863549520134,0
822,-0.6276448412485123,0
823,0.31910755141998814,0
824,-0.12017501694123076,0
825,0.04671375242066854,0
826,0.08929666403285527,0
827,-0.0080682326495157,0
828,-0.024030678641300728,0
829,0.09831623769798312,0
830,-0.04838682899033796,0
831,0.01972613727229093,0
832,0.0060469280011706626,0
833,0.1136370281128838,0
834,2.78504549319116,0
835,6.807895993440755,0
836,-2.018116785984419,0
837,0.3710424842516931,0
838,0.16777250678451544,0
839,-0.09513504195832673,0
840,0.06434167488588859,0
841,0.08737195495882366,0
842,0.005125461291954889,0
843,0.024620049305893177,0
844,0.01147266856935553,0
845,0.05495690689121298,0
846,0.05173952768343259,0
847,0.0515173583855327,0
848,0.013799774615790943,0
849,0.0336537002377135,0
850,0.29819835484339463,0
851,4.829070140087935,0
852,4.5942319169099095,0
853,-2.9617752312645416,0
854,1.553887948813663,0
855,-0.6246969484017014,0
856,0.3683906162952146,0
857,-0.10043040379403521,0
858,0.02099940223791973,0
859,0.10536011005606828,0
860,-0.03639419402924604,0
861,-0.021096510267357274,0
862,-0.0017983880552984643,0
863,0.007741236345972807,0
864,0.09289998103652701,0
865,-0.023642096765678938,0
866,0.044907684957538226,0
867,1.1384035990474057,0
868,6.677747836189871,0
869,1.15534717768699,0
870,-1.6687154838706635,0
871,1.2930726269872923,0
872,-0.5965589133731395,0
873,0.33006510673570244,0
874,-0.057133974080292124,0
875,0.06859782957656543,0
876,0.07771747694018294,0
877,0.020196031785743696,0
878,0.017089668566889288,0
879,0.06535572266103579,0
880,0.11949411073432618,0
881,0.07083959741111473,0
882,0.06772903447835907,0
883,0.059254028325508384,0
884,2.7936432519738292,0
885,6.791161610945734,0
886,-1.957595141715614,0
887,0.3657661693820907,0
888,0.04251575264018716,0
889,0.01364882035372738,0
890,-0.007665660226044008,0
891,-0.025008936199227554,0
892,-0.038926064466951286,0
893,-0.10863740028741874,0
894,-0.00018009168134606492,0
895,0.002005506111011137,0
896,0.11066054530301508,0
897,-0.010552252617174792,0
898,-0.028005197661981344,0
899,0.03786768255605531,0
900,0.3626017009532004,0
901,4.765351985475708,0
902,4.682029565067958,0
903,-2.9947885201849678,0
904,1.543069544074515,0
905,-0.8547299070346367,0
906,0.25436495327023606,0
907,-0.08622477649477933,0
908,0.14138516527028733,0
909,0.034247855757108384,0
910,0.037705779226859686,0
911,-0.048576321113711296,0
912,-0.020590338888784865,0
913,-0.01942672561034811,0
914,0.08977261027255468,0
915,0.038898185595411305,0
916,-0.020354270353994397,0
917,1.1237173817404449,0
918,6.591469622588913,0
919,1.0469733939035164,0
920,-1.7265104220719873,0
921,1.1854423125169016,0
922,-0.5758863529870133,0
923,0.2805190744797584,0
924,-0.07752671299342465,0
925,-0.015407524554205777,0
926,-0.09059101242938969,0
927,-0.040643014320146505,0
928,0.013546335669969083,0
929,-0.06576467761187488,0
930,0.020438743525823005,0
931,0.01490425856338733,0
932,-0.06974469787345625,0
933,-0.01680145718459955,0
934,2.67118831040095,0
935,6.712816742353679,0
936,-2.0850085460252994,0
937,0.22933315405554636,0
938,-0.013803013519421578,0
939,-0.09519207999604914,0
940,-0.06904524453537061,0
941,-0.03833374419817219,0
942,-0.05902883484699488,0
943,-0.08949785023630086,0
944,-0.02744226079760954,0
945,-0.03422446495884323,0
946,-0.16781405481773556,0
947,-0.024190451554340325,0
948,0.054704685280281815,0
949,-0.051424480128355356,0
950,0.2532909314259709,0
951,4.902364104621271,0
952,4.624391709951437,0
953,-2.905684464598493,0
954,1.5751224275517857,0
955,-0.7563002278293564,0
956,0.24687305871994833,0
957,-0.10012987326353133,0
958,0.09615260719187274,0
959,-0.0137414076982382,0
960,0.014419972521308753,0
961,0.08684453779307859,0
962,-0.0013220934709516022,0
963,-0.030509474260677606,0
964,-0.0023223836234387524,0
965,-0.049569798237012005,0
966,-0.0384774285319443,0
967,1.1471723454786946,0
968,6.628654615682887,0
969,0.987867392297337,0
970,-1.7633957191745735,0
971,1.0764947557937696,0
972,-0.6553591201457225,0
973,0.30812033577298686,0
974,-0.10197222555089432,0
975,-0.061133298672352954,0
976,-0.06572371475289952,0
977,-0.02484857940051515,0
978,-0.06408781784820179,0
979,-0.0198415166743916,0
980,-0.006186145288698652,0
981,-0.08218407249727275,0
982,-0.05279882451665235,0
983,-0.035498623685413844,0
984,2.6065409839905147,0
985,6.6728395153268165,0
986,-2.1831456760873706,0
987,0.3722568944021734,0
988,-0.04433009846828093,0
989,-0.09310175723123185,0
990,0.04792481576982862,0
991,-0.15478733651334192,0
992,-0.0536621468485696,0
993,-0.11304054744680744,0
994,-0.12440112704714607,0
995,-0.11645578891498534,0
996,-0.02410401285968477,0
997,-0.10973552019464894,0
998,-0.08995884994266695,0
999,-0.053507373063024846,0
1000,0.28131706354979724,0
1001,4.784389102462283,0
1002,4.618498395066857,0
1003,-3.124119611248883,0
1004,1.4739222585228176,0
1005,-0.8542542000228215,0
1006,0.3455411676702952,0
1007,-0.19476511740496852,0
1008,-0.09426863204584796,0
1009,-0.08267776102037959,0
1010,-0.11481611089800256,0
1011,-0.03570037737678321,0
1012,-0.03519354952136843,0
1013,-0.09029855278979775,0
1014,-0.05219509048842419,0
1015,-0.12545505722303446,0
1016,-0.014705208806571266,0
1017,1.09755870598789,0
1018,6.51077367417926,0
1019,0.9977240750386377,0
1020,-1.7558648111104234,0
1021,1.0472820542828265,0
1022,-0.7182615784310972,0
1023,0.12842283810472407,0
1024,-0.19258326355639935,0
1025,-0.0035014974930125467,0
1026,-0.07302305887157548,0
1027,-0.0020748810475504573,0
1028,-0.07957172313530955,0
1029,-0.04643423234984666,0
1030,-0.019375955517261595,0
1031,-0.04020179211238489,0
1032,-0.026347051891289677,0
1033,0.11400556204524694,0
1034,2.7587997684723353,0
1035,6.74162448384391,0
1036,-2.1417803292998925,0
1037,0.37290891306807755,0
1038,-0.13152227487153667,0
1039,-0.20128741249522009,0
1040,0.034352342400594454,0
1041,-0.15321893388441227,0
1042,-0.10933139864091987,0
1043,-0.10225136977058041,0
1044,-0.030629646777046028,0
1045,-0.028186815129420416,0
1046,-0.07852734106117448,0
1047,-0.13724841021786222,0
1048,0.0067252404531302,0
1049,-0.000993390147437094,0
1050,0.26110235133431453,0
1051,4.8791550363188305,0
1052,4.526996881925752,0
1053,-3.0010659270460054,0
1054,1.5678572773200425,0
1055,-0.7440474424172514,0
1056,0.3150027680546928,0
1057,-0.0851250441112091,0
1058,-0.026172440100618623,0
1059,0.17603416729659557,0
1060,0.029382986567568447,0
1061,-0.014838529243607967,0
1062,0.029592837054674408,0
1063,0.0007941619590753554,0
1064,-0.02364737664866032,0
1065,-0.09962884804746827,0
1066,0.14515157786575122,0
1067,1.2301639941541653,0
1068,6.620739283353351,0
1069,1.0548885440691753,0
1070,-1.7105072953724367,0
1071,1.0991230803539918,0
1072,-0.5904068278931512,0
1073,0.1345648796756719,0
1074,-0.11789244287391572,0
1075,0.015783998681716645,0
1076,-0.12779576101561563,0
1077,-0.02052872910986154,0
1078,-0.09146744643842972,0
1079,-0.01524666687438794,0
1080,-0.10871151760497522,0
1081,0.004455135181076181,0
1082,-0.03416668970026341,0
1083,0.0937776211413909,0
1084,2.7500253469950398,0
1085,6.712680532831418,0
1086,-2.051922066811688,0
1087,0.4287206964485236,0
1088,-0.1024944864688139,0
1089,-0.07776090157976798,0
1090,-0.07126009809606174,0
1091,-0.008521484691939446,0
1092,-0.016880104761242798,0
1093,-0.04111572083164905,0
1094,0.013402275351051558,0
1095,-0.019434092418314612,0
1096,0.12419626622315899,0
1097,0.001403139287594602,0
1098,-0.03391921453820884,0
1099,-0.007437387936450969,0
1100,0.3862963337482867,0
1101,4.826707668572851,0
1102,4.689081686443921,0
1103,-2.9544724121350505,0
1104,1.6232983780958228,0
1105,-0.707679919656706,0
1106,0.4136361142330861,0
1107,-0.052491051390468155,0
1108,0.030292250375559222,0
1109,0.08106699350850385,0
1110,0.023249062527848537,0
1111,0.01609155358963793,0
1112,0.0503655068561393,0
1113,0.2459277276330957,0
1114,0.005043940349290889,0
1115,0.04857300980139165,0
1116,-0.10833308941253547,0
1117,1.1103515585575714,0
1118,6.590353426268931,0
1119,1.0099854378010111,0
1120,-1.6952930177473926,0
1121,1.0946355787677562,0
1122,-0.541002479537424,0
1123,0.15781289592854086,0
1124,-0.09482851774458248,0
1125,-0.09679974921667295,0
1126,0.03588139362646457,0
1127,0.007887117568445304,0
1128,0.049116756701581776,0
1129,0.02351981030426893,0
1130,0.014181336402474976,0
1131,-0.005073880563248152,0
1132,-0.07831647869731116,0
1133,0.017715284342378002,0
1134,2.723145645821407,0
1135,6.726514604561242,0
1136,-2.246874997863116,0
1137,0.3997668505078987,0
1138,-0.10159056499449086,0
1139,-0.003506652990585349,0
1140,-0.11587915558352288,0
1141,-0.17394006640747733,0
1142,0.02183143554439898,0
1143,-0.07426157509270827,0
1144,-0.04715863536676228,0
1145,-0.00984128781406611,0
1146,-0.11438486252184404,0
1147,-0.10904261361251291,0
1148,-0.023018852323350367,0
1149,-0.23950420619525303,0
1150,0.2592623896264142,0
1151,4.947997780660133,0
1152,4.551710114712146,0
1153,-3.079195836371324,0
1154,1.5516649191621859,0
1155,-0.7426459600800501,0
1156,0.30831696658173185,0
1157,-0.1051283225696597,0
1158,0.03801832653436521,0
1159,-0.009278072775332274,0
1160,0.039808050688121994,0
1161,0.0031071891867089996,0
1162,0.012942176564046353,0
1163,-0.11429926289580218,0
1164,0.04224159784297424,0
1165,-0.0235489948311038,0
1166,0.07875506185695395,0
1167,1.0217403968232757,0
1168,6.540829537183113,0
1169,1.0426512762989388,0
1170,-1.614072384450776,0
1171,1.0893593509900417,0
1172,-0.6435412800608555,0
1173,0.2340443690451589,0
1174,-0.16031180059391992,0
1175,-0.11689648205656819,0
1176,-0.07170448203438551,0
1177,-0.032593459066407454,0
1178,-0.02079845593426228,0
1179,0.020700367931628848,0
1180,-0.01367859232326014,0
1181,-0.07711552221841678,0
1182,-0.11869025974088658,0
1183,-0.015375066253752602,0
1184,2.708808887945408,0
1185,6.657012684875501,0
1186,-2.2115396547893313,0
1187,0.45840958533329645,0
1188,-0.007310853394608435,0
1189,-0.07820622866962872,0
1190,-0.044175787521821046,0
1191,-0.007576105728785219,0
1192,-0.0695910975174254,0
1193,-0.09384412783706597,0
1194,0.025116533848162217,0
1195,-0.03704202316213382,0
1196,-0.026936098129751666,0
1197,0.05547377955804937,0
1198,-0.0930016432850091,0
1199,-0.10372554631105277,0
1200,0.2296045615012264,0
1201,4.839300378395016,0
1202,4.505788334139719,0
1203,-3.082030233875176,0
1204,1.4443406282477336,0
1205,-0.855399958495975,0
1206,0.26450404944596506,0
1207,-0.1445217931236334,0
1208,0.020505467088580934,0
1209,-0.07392235676814125,0
1210,-0.08311137063589184,0
1211,-0.06920364514035747,0
1212,0.033382250851382536,0
1213,-0.021805629849542665,0
1214,-0.036673921201020344,0
1215,-0.09335229515926971,0
1216,-0.0979661559882391,0
1217,1.0780977711305442,0
1218,6.461663144506591,0
1219,0.9328957090179097,0
1220,-1.7013601003130954,0
1221,0.9702250705472867,0
1222,-0.6737333130471992,0
1223,0.21440939844779744,0
1224,-0.17321068194071865,0
1225,-0.041185351996684494,0
1226,-0.09078609305800792,0
1227,-0.01711155904096292,0
1228,-0.030159998179074367,0
1229,-0.008567674123981413,0
1230,-0.03118227644233655,0
1231,-0.08026942126404377,0
1232,-0.05419212817268841,0
1233,4.6783899375220026e-05,0
1234,2.6714194795124033,0
1235,6.757903348926359,0
1236,-2.1604830856325528,0
1237,0.5095314075527086,0
1238,-0.06413961420708407,0
1239,-0.05458726697995566,0
1240,-0.0015252185876684903,0
1241,-0.02239605525771073,0
1242,0.005605579279263434,0
1243,-0.008816539425637657,0
1244,-0.039135688940309006,0
1245,0.023226763004935633,0
1246,-0.022887301834733427,0
1247,-0.03521412328130835,0
1248,-0.07412998523270078,0
1249,-0.02931500832821063,0
1250,0.30004665923857615,0
1251,4.872454559223296,0
1252,4.540036334033292,0
1253,-2.996465133973129,0
1254,1.5429327505410497,0
1255,-0.8262610669542676,0
1256,0.23083449740225742,0
1257,-0.11289913527577222,0
1258,-0.004594821709130701,0
1259,-0.05111949904032347,0
1260,0.06300785633131961,0
1261,-0.08903562369826765,0
1262,-0.10615660846610835,0
1263,-0.05441081199922575,0
1264,-0.011276070717042688,0
1265,0.054593797041249725,0
1266,-0.0707784200918363,0
1267,1.178319009232364,0
1268,6.710919841930589,0
1269,0.8912266205615104,0
1270,-1.6078151150582942,0
1271,1.0954593779625303,0
1272,-0.6170288149619197,0
1273,0.2528117491309639,0
1274,-0.10857509897670906,0
1275,0.07891463973369724,0
1276,0.02166921588389517,0
1277,0.07190148449512314,0
1278,0.04186960373204808,0
1279,0.04638495414245603,0
1280,0.049178775912091605,0
1281,-0.01626502359134908,0
1282,0.009393450781378898,0
1283,0.12560343498975682,0
1284,2.844758926124803,0
1285,6.638484439938553,0
1286,-2.1266100701828834,0
1287,0.5119865857471015,0
1288,-0.059917112148787116,0
1289,0.09317748968645855,0
1290,-0.01680621384935635,0
1291,-0.04084179536406607,0
1292,-0.02485855978721435,0
1293,-0.024193865532327732,0
1294,-0.10649942292896983,0
1295,-0.06328520533440019,0
1296,-0.05857175665652718,0
1297,0.03583861161491492,0
1298,-0.09121140838008138,0
1299,-0.06867822772221463,0
1300,0.36914350397183493,0
1301,4.896634425315914,0
1302,4.454368107670732,0
1303,-3.028340735033004,0
1304,1.5447638926290157,0
1305,-0.8674664922974006,0
1306,0.21516722172278846,0
1307,-0.17193254790782309,0
1308,-0.030368729931726582,0
1309,0.012083551928148084,0
1310,0.0032441406673135442,0
1311,-0.040567297127725145,0
1312,0.02713012879880265,0
1313,0.015406217512094783,0
1314,-0.015780158525231933,0
1315,0.10793676992943146,0
1316,-0.0047226141008005484,0
1317,1.1367371012190801,0
1318,6.636865789981319,0
1319,0.926775654977351,0
1320,-1.6575295658530256,0
1321,1.0617360512521734,0
1322,-0.6109618174625308,0
1323,0.2754189191636753,0
1324,-0.15976669774936997,0
1325,-0.030836725841707432,0
1326,-0.07152024559671852,0
1327,-0.07439743343600443,0
1328,-0.05091334204152263,0
1329,-0.07005936385394516,0
1330,-0.07455366422983639,0
1331,-0.08666066436695441,0
1332,-0.03542200942067129,0
1333,-0.10023611145739236,0
1334,2.719947633323918,0
1335,6.56613429724149,0
1336,-2.273453645607739,0
1337,0.4520404083185377,0
1338,-0.050347190429211916,0
1339,-0.06558713463180219,0
1340,-0.016114836155625784,0
1341,-0.01689471534677331,0
1342,-0.06675628777474502,0
1343,-0.03149770359067342,0
1344,-0.11222383935033972,0
1345,0.04590797409901911,0
1346,-0.004635689868700339,0
1347,0.00804592399699626,0
1348,-0.07751443839955685,0
1349,-0.046792360975032,0
1350,0.39992361466754023,0
1351,4.882260438904416,0
1352,4.345553876826317,0
1353,-3.031087709353596,0
1354,1.548225850295705,0
1355,-0.8692596263282601,0
1356,0.2343470046535725,0
1357,-0.1377837648006977,0
1358,-0.017985172358409844,0
1359,-0.15104285980915422,0
1360,0.005659827086030106,0
1361,-0.046991846852343505,0
1362,-0.05797109667741792,0
1363,-0.054012967277078765,0
1364,-0.07270352483179968,0
1365,-0.16274889321510944,0
1366,-0.1592422041018935,0
1367,1.0782091774797686,0
1368,6.528005193194452,0
1369,0.7416733994319448,0
1370,-1.7512376767513134,0
1371,0.8404388926855192,0
1372,-0.7612053089520693,0
1373,0.06578275473691712,0
1374,-0.23534338674003558,0
1375,-0.1643103113928098,0
1376,-0.13898073011352732,0
1377,-0.12448113186841347,0
1378,-0.07817031206103264,0
1379,-0.14803248285342688,0
1380,-0.1860234885617228,0
1381,-0.08983241127936427,0
1382,-0.04164922641743723,0
1383,-0.10272692764078226,0
1384,2.718621324888192,0
1385,6.50638046646728,0
1386,-2.3204131724738333,0
1387,0.4032185251857085,0
1388,-0.17877424854727003,0
1389,-0.12452392289062333,0
1390,-0.061137476426374876,0
1391,-0.13624256987392283,0
1392,-0.09621637685242485,0
1393,-0.03295287625449098,0
1394,-0.016425106674142667,0
1395,-0.10199499476698803,0
1396,-0.14346814959848908,0
1397,-0.01450161734139438,0
1398,-0.07108375748917947,0
1399,-0.08119330066906182,0
1400,0.1859298397829556,0
1401,4.804957831519948,0
1402,4.3906424823454095,0
1403,-3.076547400941875,0
1404,1.5008184772134658,0
1405,-0.7996784367420283,0
1406,0.2122723753529588,0
1407,-0.240138711873911,0
1408,-0.06533159143113232,0
1409,-0.07295616477314872,0
1410,-0.020910895731347787,0
1411,-0.02285145288620083,0
1412,-0.14232466480933714,0
1413,-0.11065925359632482,0
1414,-0.09139306574417586,0
1415,-0.070875853845805,0
1416,-0.05889460438081554,0
1417,1.0414631218687567,0
1418,6.525032573695702,0
1419,0.7264655257251734,0
1420,-1.8668151419267558,0
1421,1.062814049849969,0
1422,-0.6526107238500065,0
1423,0.0684250759592665,0
1424,-0.21819160465395038,0
1425,-0.17122545025982494,0
1426,-0.07251310994499927,0
1427,-0.16580317659864544,0
1428,-0.1092192856909987,0
1429,-0.13276132727810905,0
1430,-0.08698034254206342,0
1431,-0.13318734052771247,0
1432,-0.07734707333543142,0
1433,-0.04501734761987769,0
1434,2.761120469865127,0
1435,6.581483605570177,0
1436,-2.304422277165087,0
1437,0.4984002989540681,0
1438,-0.08376525518037228,0
1439,-0.10030617989790899,0
1440,-0.07955883008316954,0
1441,-0.09333636625223847,0
1442,-0.05681662274446028,0
1443,-0.12907581713307398,0
1444,-0.06940282890331406,0
1445,-0.12656980758616185,0
1446,-0.09782016100217637,0
1447,-0.06775335352649875,0
1448,-0.07453334938325169,0
1449,-0.037147813859220134,0
1450,0.2828609881083377,0
1451,4.915377596071281,0
1452,4.392632434006649,0
1453,-3.0095534911957325,0
1454,1.4671235419141957,0
1455,-0.85645190672563,0
1456,0.26074638535079475,0
1457,-0.23008929809602513,0
1458,0.07606592558359708,0
1459,-0.032627896580359105,0
1460,-0.1048371740831738,0
1461,-0.05548532427148547,0
1462,-0.08989085227644066,0
1463,-0.04501286858020061,0
1464,-0.13167891574369267,0
1465,-0.07420352110379737,0
1466,-0.07899933489067565,0
1467,1.074753868451173,0
1468,6.627703428283311,0
1469,0.7995496605625623,0
1470,-1.6317052739282267,0
1471,1.072151555314077,0
1472,-0.6063906365606161,0
1473,0.19571685920797938,0
1474,-0.0822920040619935,0
1475,0.03297236163198465,0
1476,-0.1255887724248313,0
1477,-0.007347338910385519,0
1478,-0.0834320013563931,0
1479,-0.08833441813416157,0
1480,-0.016573257747965198,0
1481,-0.05176239227493665,0
1482,0.020083557544305256,0
1483,0.0571092287334895,0
1484,2.8011140104752332,0
1485,6.671642084069386,0
1486,-2.1908890538332915,0
1487,0.527944852595118,0
1488,-0.041442082390644286,0
1489,-0.11651343860933486,0
1490,-0.12757306403198296,0
1491,-0.08259152647438192,0
1492,-0.03861763489215814,0
1493,-0.10798464771845785,0
1494,-0.0037549899922163094,0
1495,0.033749441369480396,0
1496,-0.09495355749762763,0
1497,0.07564898834269218,0
1498,-0.04413794746320886,0
1499,-0.059308392329032206,0
1500,0.2929734701231953,0
1501,5.071754453578602,0
1502,4.513400641452727,0
1503,-2.9325957125448,0
1504,1.519089381132251,0
1505,-0.6937378039903089,0
1506,0.33289507305165716,0
1507,-0.0995550854491448,0
1508,0.006810414949981303,0
1509,0.08618355284271657,0
1510,0.007229993327323056,0
1511,0.008842523068675721,0
1512,0.017725744858959155,0
1513,-0.001787013732707338,0
1514,-0.08309864306126682,0
1515,0.08374869587706893,0
1516,-0.057909917100689844,0
1517,1.1377818398846413,0
1518,6.753979755712933,0
1519,0.817105035886282,0
1520,-1.619852431518276,0
1521,1.083264727034769,0
1522,-0.5401338454838304,0
1523,0.1994028401080622,0
1524,-0.036276564112589546,0
1525,0.009204091277325386,0
1526,-0.04149068525334738,0
1527,-0.04898155657356097,0
1528,0.04448245979739753,0
1529,0.011013233731345561,0
1530,0.018647633339969168,0
1531,0.08156557545696122,0
1532,0.05278678242882767,0
1533,0.011447383047534967,0
1534,2.8894892945843718,0
1535,6.664392445357634,0
1536,-2.281964650556003,0
1537,0.6315517845385721,0
1538,-0.06358295420517901,0
1539,0.010339896698185257,0
1540,-0.02275187102868376,0
1541,0.00921867262676751,0
1542,-0.01706279392877617,0
1543,0.07818102280984174,0
1544,0.0141945981495405,0
1545,0.06104579964414674,0
1546,0.04926724247844508,0
1547,0.0271705084544806,0
1548,-0.03793017069582267,0
1549,-0.03454875798217502,0
1550,0.2720464472400335,0
1551,5.002440672526425,0
1552,4.422858838309059,0
1553,-2.9920033984748753,0
1554,1.6642540157649905,0
1555,-0.7336925422788908,0
1556,0.2934164794990849,0
1557,-0.1584508341596007,0
1558,0.028883792014275732,0
1559,0.025579921139969056,0
1560,-0.04028302652027489,0
1561,-0.014312334258447475,0
1562,0.06452686309527383,0
1563,0.04993962686723991,0
1564,0.04179250246453393,0
1565,-0.03276175180407018,0
1566,0.01166249820111653,0
1567,1.3039211478177575,0
1568,6.748306935820049,0
1569,0.8148810612955978,0
1570,-1.5623579482546526,0
1571,1.0622975297343364,0
1572,-0.5290480694760776,0
1573,0.25151099321535836,0
1574,-0.06236805023938342,0
1575,-0.00866698904560987,0
1576,0.02008749521114641,0
1577,0.029329889750402027,0
1578,0.03425926194547488,0
1579,0.010561765741776474,0
1580,0.06802349134203556,0
1581,-0.0014717282045067798,0
1582,-0.015187559068295614,0
1583,0.007436085936605344,0
1584,2.9466501686869675,0
1585,6.677269321942221,0
1586,-2.2421822515817733,0
1587,0.6618257111796396,0
1588,0.007443042088474759,0
1589,0.06743891427025041,0
1590,0.046576039426859464,0
1591,-0.04197719300513294,0
1592,-0.023871663688256967,0
1593,0.002990576545959491,0
1594,0.0061978160214443394,0
1595,-0.0010986455103377604,0
1596,0.014623571908051938,0
1597,-0.00603754664399072,0
1598,-0.057607351233317554,0
1599,-0.014883954711146466,0
1600,0.4416091668749482,0
1601,5.023434257899732,0
1602,4.243202464918823,0
1603,-2.987559723664429,0
1604,1.5550707679384037,0
1605,-0.8403984028654652,0
1606,0.30289693416498087,0
1607,-0.08963485104514153,0
1608,0.042167878202698,0
1609,0.03591630884017727,0
1610,0.05102491931665009,0
1611,0.08604289489703508,0
1612,0.09919692042540224,0
1613,0.009630944530819485,0
1614,0.016964445870351733,0
1615,-0.041844832624111955,0
1616,-0.012069082627437125,0
1617,1.2803652318000858,0
1618,6.691890235946107,0
1619,0.749174799290049,0
1620,-1.579703853771984,0
1621,1.102911412382309,0
1622,-0.4954125802362824,0
1623,0.07509636895271596,0
1624,-0.10331243539726526,0
1625,0.03988474140766737,0
1626,0.02385374239238081,0
1627,0.03437079872450168,0
1628,0.0013558554845538697,0
1629,-0.013227017099466661,0
1630,-0.006445470693895455,0
1631,0.09339888363257134,0
1632,-0.07744591982539917,0
1633,0.141201811685428,0
1634,2.924022020127042,0
1635,6.760938188050369,0
1636,-2.228561929432181,0
1637,0.6822413975971164,0
1638,0.03275019764687531,0
1639,0.05485529909706023,0
1640,0.029066082556898035,0
1641,-0.00496946869308329,0
1642,0.12264417440659883,0
1643,0.08512685964110867,0
1644,0.017420473378258333,0
1645,0.08713764113687211,0
1646,0.07935687979724418,0
1647,0.10689988087372372,0
1648,0.0937649963383245,0
1649,0.00936397355542673,0
1650,0.4894652154563589,0
1651,4.9411981450693885,0
1652,4.400934277094159,0
1653,-2.7915192419471873,0
1654,1.689898294741868,0
1655,-0.6717032605283922,0
1656,0.35241655009237355,0
1657,-0.04278956256856922,0
1658,0.10544805705638988,0
1659,0.10654667289813861,0
1660,0.0014313037676259577,0
1661,0.07136817293704781,0
1662,-0.03178177325464337,0
1663,0.04344179630936407,0
1664,-0.07829929700568626,0
1665,0.05568254667038314,0
1666,0.10004731168216902,0
1667,1.2020538546405255,0
1668,6.658323903425878,0
1669,0.8044628020374907,0
1670,-1.483076717137849,0
1671,1.0286196364812017,0
1672,-0.5514365909595401,0
1673,0.12287451041386888,0
1674,-0.08065364143933214,0
1675,-0.06241265663237573,0
1676,0.10896202541847835,0
1677,0.07864212860552433,0
1678,0.03792158485220656,0
1679,0.06377580866844637,0
1680,0.02178701365370425,0
1681,0.1135999007638363,0
1682,-0.005730878800514504,0
1683,0.08326566126873085,0
1684,3.0030846502165267,0
1685,6.674663966351996,0
1686,-2.210391599496829,0
1687,0.5966291223444031,0
1688,-0.13082816771285416,0
1689,0.03491979081621401,0
1690,0.005803211242801209,0
1691,-0.018610065690645702,0
1692,0.03225663199502823,0
1693,0.10659185361382177,0
1694,0.03770513334096805,0
1695,-0.007944471608077935,0
1696,0.007775651511736617,0
1697,-0.014404961155338281,0
1698,0.060063027649633526,0
1699,0.035472440495879026,0
1700,0.4248410809383052,0
1701,5.01501264640667,0
1702,4.35926962679436,0
1703,-2.850355958503677,0
1704,1.6107780055170102,0
1705,-0.6923827294883059,0
1706,0.2931722051201075,0
1707,-0.04774985057686388,0
1708,0.06324879219124752,0
1709,0.10985661841399821,0
1710,0.03286079065261642,0
1711,-0.021724221981298523,0
1712,0.11646889718950548,0
1713,0.08147780956619025,0
1714,0.10521884548090663,0
1715,0.06041530069046125,0
1716,0.018010324387222346,0
1717,1.296262793161324,0
1718,6.728611074941611,0
1719,0.7368349169689933,0
1720,-1.5058419803201235,0
1721,1.0877902150118872,0
1722,-0.49840007985257595,0
1723,0.3054314700455518,0
1724,0.01743904601866777,0
1725,0.07066606047302959,0
1726,-0.04743566642878553,0
1727,-0.029851728544852803,0
1728,0.03067298287248101,0
1729,-0.11677057510269703,0
1730,0.027751465040547114,0
1731,0.024931261631793898,0
1732,0.04922278965613536,0
1733,0.19381630623850113,0
1734,2.995936410810712,0
1735,6.686864733609079,0
1736,-2.355165803037571,0
1737,0.5813275343679273,0
1738,0.0507345522886203,0
1739,0.02933875920822014,0
1740,0.060488332576769166,0
1741,0.0878602870215668,0
1742,-0.0012177085827400763,0
1743,-0.036234785823402414,0
1744,-0.01207663113737318,0
1745,0.028251312467832634,0
1746,0.041996537223299824,0
1747,0.03550615943454218,0
1748,-0.01565939137614436,0
1749,0.04449912739129658,0
1750,0.42501932596552794,0
1751,5.169177473684276,0
1752,4.4394975090587465,0
1753,-2.9212682729529558,0
1754,1.6682383323166359,0
1755,-0.7654521913429471,0
1756,0.34343551155682167,0
1757,-0.08732446006806009,0
1758,0.10029700468238281,0
1759,0.056827356326255074,0
1760,0.06051981790434264,0
1761,0.0395169903643572,0
1762,0.06490324896418566,0
1763,0.07038466205908406,0
1764,-0.014034519527192382,0
1765,0.00793645789151233,0
1766,0.03938940647112094,0
1767,1.2731953154359568,0
1768,6.7554343884264165,0
1769,0.7511829798053046,0
1770,-1.4604717548915163,0
1771,1.0145945067515039,0
1772,-0.5634639668320736,0
1773,0.20910422687825256,0
1774,-0.03277459096601352,0
1775,0.06265993794952848,0
1776,0.02174195486133188,0
1777,0.046286041944543464,0
1778,0.01954823578992947,0
1779,0.0358045833765426,0
1780,-0.0015125646566361561,0
1781,0.06010020977432526,0
1782,0.08361441339983132,0
1783,0.03389275775404217,0
1784,3.0352076971381976,0
1785,6.715565038092684,0
1786,-2.300771710059007,0
1787,0.6952934321496591,0
1788,-0.08241446569025439,0
1789,0.03446738923332159,0
1790,0.00186057503922522,0
1791,0.08321846124849674,0
1792,0.023686490854401308,0
1793,-0.03345257872972353,0
1794,-0.02463364768365952,0
1795,-0.00322976480596638,0
1796,-0.00788829340226142,0
1797,0.12217567299644513,0
1798,0.07975640815707481,0
1799,0.009323193217333228,0
1800,0.4436185533446983,0
1801,5.1305474778313895,0
1802,4.338853869817393,0
1803,-2.9076387422342616,0
1804,1.589171925189933,0
1805,-0.7239865504506406,0
1806,0.30811330407187465,0
1807,-0.012434477328704091,0
1808,0.07835288721738348,0
1809,-0.02446595071412731,0
1810,0.03891667354455716,0
1811,0.020276056930387584,0
1812,0.052077483961468274,0
1813,-0.0847298576788774,0
1814,-0.011729799808789696,0
1815,-0.051197396554959765,0
1816,-0.07095520984098291,0
1817,1.169710463137525,0
1818,6.772947714687024,0
1819,0.6674049658971462,0
1820,-1.5016944366846716,0
1821,1.011330939150136,0
1822,-0.5951448443431379,0
1823,0.1509040455573782,0
1824,-0.054440285822670534,0
1825,-0.06084258847610065,0
1826,-0.025189909928654358,0
1827,-0.09405693289219949,0
1828,-0.04266175703577739,0
1829,-0.017319760853209583,0
1830,0.02188190184601613,0
1831,0.08650728335486003,0
1832,-0.023330493195975605,0
1833,0.015558542196945427,0
1834,2.920868144212066,0
1835,6.653689752813426,0
1836,-2.365654496220281,0
1837,0.683353836229744,0
1838,-0.11999852677970041,0
1839,-0.012693881269451191,0
1840,0.02726441386870181,0
1841,0.052738480899864076,0
1842,0.01059518708237925,0
1843,-0.07164640696685709,0
1844,0.020621024902495302,0
1845,0.05794103778254772,0
1846,0.0318307041724548,0
1847,0.02766428414898368,0
1848,0.08262498232859325,0
1849,-0.08001304067861595,0
1850,0.31405990168749853,0
1851,5.135093021391757,0
1852,4.220280861011565,0
1853,-2.8794152683320626,0
1854,1.509772736970245,0
1855,-0.7806749439873814,0
1856,0.24761934329560412,0
1857,-0.1373044876119844,0
1858,0.020717428506585617,0
1859,-0.08741839776526834,0
1860,-0.10397199117689604,0
1861,-0.05085694052908614,0
1862,-0.03474487643082877,0
1863,0.0754721943643464,0
1864,-0.056443651626019574,0
1865,-0.08675780207402034,0
1866,-0.19196751696831332,0
1867,1.2359140081646764,0
1868,6.689147946434123,0
1869,0.6343069420887524,0
1870,-1.4893114530451155,0
1871,1.0742085995125175,0
1872,-0.5920035969913631,0
1873,0.24390405990985595,0
1874,-0.17167582003196408,0
1875,-0.013313937824891315,0
1876,-0.04807872805026674,0
1877,0.08349969350561134,0
1878,0.07277191659068218,0
1879,-0.034692985756220186,0
1880,-0.0642712507487939,0
1881,0.0101710803565404,0
1882,0.019198867076635047,0
1883,-0.01995832280052734,0
1884,2.986210026901859,0
1885,6.532568941085725,0
1886,-2.42101812604031,0
1887,0.6383056888611821,0
1888,-0.1902956328536101,0
1889,-0.08216056851025486,0
1890,-0.13249856723660428,0
1891,-0.08278576215338836,0
1892,-0.0823641496056295,0
1893,-0.057537724492602624,0
1894,-0.035092288620874976,0
1895,0.029275865576372115,0
1896,-0.09338299523524715,0
1897,-0.05497999295799427,0
1898,-0.11024509822496456,0
1899,-0.10111745735153757,0
1900,0.29855357350428113,0
1901,5.06025080993053,0
1902,4.157416072647385,0
1903,-3.012756012278975,0
1904,1.5126093153921554,0
1905,-0.8384383242128635,0
1906,0.38222286109124587,0
1907,-0.09889502964166211,0
1908,0.02625406620744329,0
1909,-0.05505889512017294,0
1910,-0.07543208531371408,0
1911,-0.07894236268999963,0
1912,-0.07457934381633188,0
1913,-0.0874600895917581,0
1914,-0.035396299141700484,0
1915,0.01526746942941589,0
1916,0.02113041748455151,0
1917,1.234384869217206,0
1918,6.632726444893246,0
1919,0.6338992435091823,0
1920,-1.5200192988331669,0
1921,0.9432779905675588,0
1922,-0.5999335232364674,0
1923,0.16622308263897465,0
1924,-0.13702987581856083,0
1925,-0.08218324048378345,0
1926,-0.006386458112601454,0
1927,-0.05957035396398152,0
1928,-0.007581778161654389,0
1929,-0.1147839069496952,0
1930,-0.13392778835940083,0
1931,-0.13903345382953636,0
1932,-0.10491154608824173,0
1933,0.010252760896119524,0
1934,2.965859222237296,0
1935,6.642200374039346,0
1936,-2.4102779355221777,0
1937,0.6350618896736395,0
1938,-0.1362989276417758,0
1939,0.07579518421976018,0
1940,-0.06339928512515727,0
1941,-0.18453975586127508,0
1942,-0.011701999666562587,0
1943,-0.004769793636063103,0
1944,-0.11042378416897058,0
1945,-0.06635974465949684,0
1946,-0.03676258880132891,0
1947,-0.08013927710167962,0
1948,0.029477236751497875,0
1949,0.04324351360395267,0
1950,0.33756189706696765,0
1951,5.146892580905947,0
1952,4.1067339242309,0
1953,-2.972988394831842,0
1954,1.5197740409510347,0
1955,-0.8231716978602751,0
1956,0.28752920385606123,0
1957,-0.10260869044726983,0
1958,-0.026104484015996274,0
1959,0.002778495864306514,0
1960,0.013528898595677824,0
1961,-0.02615916089077606,0
1962,-0.015378741632134965,0
1963,0.03959470250686336,0
1964,-0.0011752605284473527,0
1965,-0.0626867268814836,0
1966,-0.02298995799827889,0
1967,1.2236227091610914,0
1968,6.767972200882948,0
1969,0.5076413393299576,0
1970,-1.5625376146079901,0
1971,1.0204334805022017,0
1972,-0.5931951183709814,0
1973,0.24883150597157316,0
1974,-0.12160090584699991,0
1975,0.030742453067883764,0
1976,-0.1313161836200233,0
1977,-0.07523835986254894,0
1978,0.011205942175772525,0
1979,-0.038298107212210004,0
1980,-0.04325057909968451,0
1981,-0.06342036982351401,0
1982,-0.0017166598136473046,0
1983,-0.07687386873155183,0
1984,2.9252740244790334,0
1985,6.5758705124371275,0
1986,-2.4115474721058976,0
1987,0.736554060955849,0
1988,-0.1492187233694749,0
1989,-0.0074854338019162605,0
1990,-0.003363478727711096,0
1991,-0.018211306219534408,0
1992,-0.04543539734648261,0
1993,-0.05347297603310422,0
1994,-0.07576355334782132,0
1995,0.008499537971709763,0
1996,0.01386683100561156,0
1997,0.02329179915648108,0
1998,-0.02946890429264654,0
1999,0.020539358162626652,0
2000,0.28072138890384873,0
2001,5.1662933391470265,0
2002,4.186674889901693,0
2003,-2.9028062908052585,0
2004,1.6177939432954505,0
2005,-0.7971529450122913,0
2006,0.36634465513273357,0
2007,-0.09625858934272055,0
2008,0.02435872438726432,0
2009,-0.019262405780876485,0
2010,-0.08012757019534808,0
2011,0.02264336320809891,0
2012,0.0684811817858511,0
2013,-0.03736669076220494,0
2014,0.08820082337936896,0
2015,-0.0966308864807218,0
2016,0.04637944388114968,0
2017,1.3129063809950803,0
2018,6.845523047014918,0
2019,0.6362622481552461,0
2020,-1.3735204403766041,0
2021,1.029818736391182,0
2022,-0.5532767361237393,0
2023,0.2559024018623352,0
2024,-0.04718751354287006,0
2025,0.10926735222244233,0
2026,0.07317729134595559,0
2027,-0.05108010384206205,0
2028,-0.05251519641676092,0
2029,-0.06481735153459639,0
2030,0.0598958525774079,0
2031,0.08556752711420348,0
2032,0.006212823130730297,0
2033,0.042676560710214945,0
2034,3.0571960485673912,0
2035,6.583035450476947,0
2036,-2.3477719923296316,0
2037,0.6569745276110046,0
2038,-0.15393146966574162,0
2039,0.0643295898731617,0
2040,-0.0243280435767402,0
2041,0.023271787754030222,0
2042,0.03493479296811029,0
2043,0.08540962537698396,0
2044,-0.0027619399559405122,0
2045,0.03709984887756432,0
2046,0.03326432446924841,0
2047,0.06943375765554624,0
2048,0.005166297895664258,0
2049,0.09200808087385341,0
2050,0.540668413056571,0
2051,5.189983048721154,0
2052,4.280719781801239,0
2053,-2.847985386050505,0
2054,1.6557521086281783,0
2055,-0.759624312578812,0
2056,0.4158923918711009,0
2057,-0.09201092984644271,0
2058,0.09032262175826422,0
2059,0.10028098953432123,0
2060,0.10513247640408545,0
2061,0.02085058575144461,0
2062,0.04855286162969661,0
2063,0.0011998225201992861,0
2064,0.0482206169728131,0
2065,0.04175095138476245,0
2066,-0.036338292830618985,0
2067,1.3460613122275773,0
2068,6.822141937690854,0
2069,0.6032921557224692,0
2070,-1.421757995803357,0
2071,1.0246383865379938,0
2072,-0.42761079845269706,0
2073,0.27446987474571616,0
2074,-0.06306219215807371,0
2075,-0.018384189235300046,0
2076,0.03358883990997571,0
2077,0.05886229738531256,0
2078,0.05528444661532717,0
2079,0.02546909204853081,0
2080,-0.033593896354841085,0
2081,0.06943090126762931,0
2082,0.022680319947790822,0
2083,0.04287005926709888,0
2084,3.0748935833260225,0
2085,6.671095301251792,0
2086,-2.3690319861485443,0
2087,0.7513932859768986,0
2088,-0.11794061413163372,0
2089,0.04823547399985653,0
2090,0.05091325546944388,0
2091,0.07425155884769882,0
2092,0.07115724630381873,0
2093,0.03398047026273598,0
2094,0.08932591840606366,0
2095,0.03491588521906122,0
2096,0.08376428367538011,0
2097,0.11026450739052424,0
2098,-0.03516747080487406,0
2099,0.039333892513411475,0
2100,0.5746821227633236,0
2101,5.212110964191445,0
2102,4.273920810521648,0
2103,-2.909701682083206,0
2104,1.6750430988162204,0
2105,-0.7197675087320159,0
2106,0.3359332545097336,0
2107,-0.12236379711803382,0
2108,0.055906304164935736,0
2109,0.10595186008625161,0
2110,0.05821236464709359,0
2111,0.011559435100918836,0
2112,0.0016315948665298896,0
2113,-0.00413679177756008,0
2114,0.022359914143355246,0
2115,0.08450006497161358,0
2116,0.061862111593972216,0
2117,1.3692497473694545,0
2118,6.8276992031297565,0
2119,0.5968216008327215,0
2120,-1.4934715772318197,0
2121,1.0064671565775234,0
2122,-0.47152984645871066,0
2123,0.23120374031733934,0
2124,-0.028969643815091446,0
2125,-0.008135687614255649,0
2126,0.03686017305894526,0
2127,0.004132176602370086,0
2128,0.03919784929784597,0
2129,0.07920340883006073,0
2130,0.0947488774389929,0
2131,0.021968475891789793,0
2132,0.04569341005450646,0
2133,0.07532090157282996,0
2134,3.0471142686165753,0
2135,6.615310708788665,0
2136,-2.3673114992975797,0
2137,0.7209394002554363,0
2138,-0.16052828182758655,0
2139,0.048670789691830516,0
2140,-0.04153419913610577,0
2141,0.08442922475924505,0
2142,0.08299733952311412,0
2143,-0.01001815225964331,0
2144,0.008018510749984218,0
2145,0.13252599831779668,0
2146,-0.021568292419004088,0
2147,0.007769087642719979,0
2148,-0.05293910723558219,0
2149,0.07668960542729833,0
2150,0.36745480963656746,0
2151,5.1370707193096,0
2152,4.197560872337057,0
2153,-2.9434702260948793,0
2154,1.6122053031545718,0
2155,-0.8443171203534096,0
2156,0.36865118977662126,0
2157,-0.04558815942228291,0
2158,-0.01174827759978632,0
2159,0.010334126145849788,0
2160,-0.045984888329050524,0
2161,-0.07582144123913837,0
2162,0.03460308413031006,0
2163,-0.03346211024025504,0
2164,0.026428995361895462,0
2165,-0.017952228945656,0
2166,-0.007784220306073609,0
2167,1.4514599457381139,0
2168,6.910065750631112,0
2169,0.562228247559866,0
2170,-1.3328720065016844,0
2171,0.934160331461577,0
2172,-0.4299764062164749,0
2173,0.24470181839222568,0
2174,-0.03350358016590405,0
2175,0.05304987324450486,0
2176,-0.10681296355796566,0
2177,0.08257188908008267,0
2178,0.02930033487070247,0
2179,-0.00895624731857669,0
2180,0.09092786406377656,0
2181,-0.045117908569239265,0
2182,-0.012510932583876387,0
2183,0.11911696463491786,0
2184,3.073837530888979,0
2185,6.566801392436517,0
2186,-2.408958209737818,0
2187,0.7827878901680058,0
2188,-0.08669019421587758,0
2189,0.14092454059318277,0
2190,-0.1045015819656653,0
2191,-0.07430527645686782,0
2192,0.03216441561632641,0
2193,-0.02779914551218821,0
2194,0.0683789824407644,0
2195,0.07330794078995642,0
2196,0.011741569534687649,0
2197,-0.05782193973865263,0
2198,0.0069834454152083135,0
2199,0.05199611872095661,0
2200,0.46379485649085245,0
2201,5.314057513438388,0
2202,4.137977944184313,0
2203,-2.8933689537491425,0
2204,1.6469561238170056,0
2205,-0.7290826514098193,0
2206,0.4215931868581422,0
2207,-0.10942038338859027,0
2208,0.038002980505102445,0
2209,-0.02599597001432563,0
2210,-0.03705800695765937,0
2211,-0.03657609992732397,0
2212,-0.026070387430371683,0
2213,-0.017255129551015658,0
2214,-0.0585985708459041,0
2215,0.052380424920594235,0
2216,0.013848360438182779,0
2217,1.363489899778641,0
2218,6.685082143089918,0
2219,0.44807003749487945,0
2220,-1.3447295409442455,0
2221,1.0224675454739947,0
2222,-0.47877461458225057,0
2223,0.22186518935815788,0
2224,-0.08743154186226249,0
2225,0.006168331029106539,0
2226,-0.027578884625989248,0
2227,-0.00957477695946259,0
2228,0.04180288556701879,0
2229,-0.01503258569228717,0
2230,0.007277458012127223,0
2231,0.14576432845504358,0
2232,-0.04391145703493466,0
2233,0.1463780226347719,0
2234,3.142923871521503,0
2235,6.586320235909827,0
2236,-2.4481006877095237,0
2237,0.8122512288159734,0
2238,-0.06257215871345514,0
2239,0.097629867828437,0
2240,0.09062295005526223,0
2241,0.1542746201500042,0
2242,0.12757190863565923,0
2243,0.16131060226178004,0
2244,0.11345543069679473,0
2245,0.12137379732090145,0
2246,0.13432784893700445,0
2247,0.08724553619187511,0
2248,0.12324654515726148,0
2249,0.039528486824340105,0
2250,0.3840611803739751,0
2251,5.254286780183239,0
2252,4.0202733787328375,0
2253,-2.807584674635643,0
2254,1.5824207339787737,0
2255,-0.8012020862553711,0
2256,0.3466717957896906,0
2257,-0.14307402066919994,0
2258,-0.027565965808078165,0
2259,-0.005219051099672177,0
2260,0.01877052441546594,0
2261,0.012116541215185414,0
2262,0.06259867832472553,0
2263,0.020228429473714317,0
2264,0.15257388565186703,0
2265,0.10085694756964866,0
2266,0.09214830949305597,0
2267,1.4595070529648457,0
2268,6.853883743348792,0
2269,0.49694610554263097,0
2270,-1.2658666356580517,0
2271,1.0485884264273948,0
2272,-0.41308482373734373,0
2273,0.24556621570841047,0
2274,0.006552437783004012,0
2275,0.03545478813658298,0
2276,0.10447934207936724,0
2277,0.08563364995685813,0
2278,0.017851546694756727,0
2279,0.06469245098186763,0
2280,0.055457892219993574,0
2281,0.0750468033978692,0
2282,-0.01876178698570764,0
2283,0.07106388689597581,0
2284,3.075264092231431,0
2285,6.553689822136345,0
2286,-2.5002378403242105,0
2287,0.7167774561117852,0
2288,-0.14827526148645115,0
2289,0.07914728887253514,0
2290,-0.016192561425284004,0
2291,0.011050117166346914,0
2292,-0.011248417407490241,0
2293,-0.0006190019508544441,0
2294,0.005493411905581395,0
2295,-0.0463604763116096,0
2296,-0.10556577960577246,0
2297,-0.02779535245087962,0
2298,-0.11508432649358992,0
2299,-0.028274553787417847,0
2300,0.42337087662262424,0
2301,5.185387949558363,0
2302,3.9801943714450654,0
2303,-2.8691944439365455,0
2304,1.6253816051168244,0
2305,-0.8616410264298027,0
2306,0.30002600152237746,0
2307,-0.05054279079766387,0
2308,-0.017844079377515046,0
2309,0.0023385116728670517,0
2310,0.03444353397399377,0
2311,0.015880183733375464,0
2312,0.01562821844340776,0
2313,0.030476605201590665,0
2314,-0.09380209721697028,0
2315,-0.016276596404322212,0
2316,0.10260101852607477,0
2317,1.3853006603679647,0
2318,6.8240440860006775,0
2319,0.45784270315399056,0
2320,-1.3882687551369834,0
2321,0.8748228867334005,0
2322,-0.4656414301651997,0
2323,0.26817630201700043,0
2324,-0.1366314274396978,0
2325,-0.06827983770765544,0
2326,-0.004870652206865432,0
2327,0.010921664071924221,0
2328,-0.002147150876089212,0
2329,-0.07946968647426925,0
2330,0.012348641096826658,0
2331,-0.043067583568339646,0
2332,-0.016565757490420586,0
2333,0.020665967057826987,0
2334,3.0976767226523014,0
2335,6.552973516293217,0
2336,-2.523478858120849,0
2337,0.704316575376885,0
2338,-0.124851060015093,0
2339,0.10150397605919649,0
2340,-0.021654685940397864,0
2341,0.014809773690628095,0
2342,-0.028565415495593598,0
2343,-0.06881034148213991,0
2344,-0.05647713200110154,0
2345,0.03148012882582523,0
2346,0.027050396376322748,0
2347,-0.05593604640106556,0
2348,-0.1122019208719309,0
2349,-0.12687818486046787,0
2350,0.42314685761869436,0
2351,5.1607204416391035,0
2352,3.9839927944285707,0
2353,-2.904700307163685,0
2354,1.661943968448892,0
2355,-0.8457695036471269,0
2356,0.2513770147246902,0
2357,-0.08670937210257837,0
2358,0.024822755710199918,0
2359,0.021643107502025083,0
2360,-0.028747775800052028,0
2361,-0.050717901822661796,0
2362,0.03696845586050878,0
2363,0.039789983898110406,0
2364,-0.037169228598706736,0
2365,0.025685665251591855,0
2366,0.026696350427298354,0
2367,1.3427632726829688,0
2368,6.867135188797711,0
2369,0.4098744774646994,0
2370,-1.3393090718986271,0
2371,0.9066136538233713,0
2372,-0.4871300654567687,0
2373,0.006501027998530945,0
2374,-0.20522482352875673,0
2375,-0.08705007565969965,0
2376,-0.02965994631680648,0
2377,-0.04908699579423433,0
2378,-0.11128728143370824,0
2379,-0.05986974973523024,0
2380,-0.015626666487852568,0
2381,-0.07825029578711398,0
2382,-0.10187671580598015,0
2383,0.060378659884493605,0
2384,3.0470575885334603,0
2385,6.49583244898973,0
2386,-2.637867330000964,0
2387,0.6472459302581275,0
2388,-0.3260965479201849,0
2389,0.023911504290503656,0
2390,-0.13993033845094655,0
2391,-0.06756742864735735,0
2392,-0.07527888332855265,0
2393,-0.07903005319225365,0
2394,-0.08602806997531326,0
2395,-0.07236887586166424,0
2396,-0.06656317261496889,0
2397,-0.18413444207157859,0
2398,-0.042244572774115946,0
2399,-0.21559734684158025,0
2400,0.31563476030934656,0
2401,5.069777659565399,0
2402,3.964182052212719,0
2403,-3.0344077341256654,0
2404,1.6051867040261385,0
2405,-0.8585879431988572,0
2406,0.26371806020212113,0
2407,-0.21030529208654553,0
2408,0.0023033101683288017,0
2409,-0.002798391158910403,0
2410,-0.014498263952449662,0
2411,-0.006535778540900948,0
2412,0.009647011805941526,0
2413,0.02973724588379759,0
2414,-0.08442949112150332,0
2415,0.03506717343140769,0
2416,-0.06924686043067224,0
2417,1.281106622105286,0
2418,6.735434355678936,0
2419,0.3403403566064945,0
2420,-1.3460955374022745,0
2421,0.8034486737081759,0
2422,-0.559333056374773,0
2423,0.04927641186628362,0
2424,-0.165037752468502,0
2425,-0.01743293307745432,0
2426,-0.03741853160075761,0
2427,-0.17949718715300458,0
2428,-0.10371779978252663,0
2429,0.0015690266134359698,0
2430,-0.10133173744054168,0
2431,-0.016006907872464636,0
2432,-0.022195387392670865,0
2433,0.051823806926830696,0
2434,3.106838990470121,0
2435,6.532737826708009,0
2436,-2.5779784693336456,0
2437,0.7596426013877611,0
2438,-0.25461884275593216,0
2439,-0.04467903686258423,0
2440,-0.13227351770866483,0
2441,-0.018640769021127414,0
2442,-0.12121321761185672,0
2443,-0.015404811792643289,0
2444,-0.06619544835128319,0
2445,-0.13402488462996054,0
2446,-0.006193092114384818,0
2447,-0.04602033753282692,0
2448,-0.11553976961801468,0
2449,-0.19532710243837362,0
2450,0.39979909393536306,0
2451,5.106602406461994,0
2452,3.914957098281784,0
2453,-2.960753211636074,0
2454,1.521501518599385,0
2455,-0.8078446723904835,0
2456,0.26779297164646154,0
2457,-0.11771912575532474,0
2458,-0.06284465222573372,0
2459,-0.06864014343334483,0
2460,-0.13985582266073354,0
2461,-0.07967785129802621,0
2462,-0.11748914506722598,0
2463,-0.10986464358461262,0
2464,-0.1340421694888802,0
2465,-0.10207682147390679,0
2466,-0.14791225273346645,0
2467,1.2755977796064195,0
2468,6.7150158738196195,0
2469,0.22368871622719821,0
2470,-1.3837606510179432,0
2471,0.9671730717895141,0
2472,-0.6414768263033993,0
2473,0.16401087541489814,0
2474,-0.19918911620457536,0
2475,0.0016943872500221058,0
2476,-0.044575264923267154,0
2477,-0.038302578175230105,0
2478,-0.04403021393164018,0
2479,-0.07372574026688973,0
2480,-0.031329043288976316,0
2481,-0.16191577563621623,0
2482,-0.1292819563940099,0
2483,-0.055362455343471256,0
2484,3.023356566312936,0
2485,6.451633865438705,0
2486,-2.580028349588841,0
2487,0.674394568250122,0
2488,-0.2143544390147367,0
2489,-0.027497267177596353,0
2490,-0.1550741459646681,0
2491,-0.09304853210941769,0
2492,-0.17552814916550338,0
2493,-0.08310886884414137,0
2494,-0.09588675965602572,0
2495,-0.07945101913690189,0
2496,-0.16953254022094932,0
2497,-0.1980226397255802,0
2498,-0.1782486380384666,0
2499,-0.17375662927488877,0
2500,0.30105768049606674,0
2501,5.110415905574383,0
2502,3.8058575669773886,0
2503,-3.0130085320203572,0
2504,1.496222754163816,0
2505,-0.9646156035446372,0
2506,0.20642416486426518,0
2507,-0.12108568400783491,0
2508,-0.055171518919764365,0
2509,-0.16886289880626953,0
2510,-0.18032464330625864,0
2511,-0.039177369853755466,0
2512,-0.12752503285404698,0
2513,-0.1147190938281413,0
2514,-0.024963036971257,0
2515,-0.09818447522040469,0
2516,-0.0739778786085523,0
2517,1.335581219290101,0
2518,6.756550753388488,0
2519,0.2777198070868217,0
2520,-1.333841299986316,0
2521,0.8526751467764592,0
2522,-0.5232076943178198,0
2523,0.10356059900174913,0
2524,-0.1411289002992617,0
2525,-0.08218596251878173,0
2526,-0.10712666470316051,0
2527,-0.0965514040592699,0
2528,-0.1264053066172846,0
2529,-0.018165561321994476,0
2530,-0.07560070907544571,0
2531,-0.06818205320757706,0
2532,0.005085561076750955,0
2533,0.04497052180252395,0
2534,3.1328414361478893,0
2535,6.389377397026194,0
2536,-2.5273061771377923,0
2537,0.817609202310437,0
2538,-0.27109015719564894,0
2539,-0.007003262525952838,0
2540,-0.10800403272801068,0
2541,-0.008659494422906013,0
2542,-0.10419862251974257,0
2543,-0.066562061088923,0
2544,-0.07661263243285767,0
2545,-0.10755715700144294,0
2546,0.07088712998287419,0
2547,-0.07421148621041647,0
2548,-0.14184716366619599,0
2549,-0.02568503222936175,0
2550,0.390671028904233,0
2551,5.194290273618948,0
2552,3.876881761752178,0
2553,-2.9385755875897077,0
2554,1.4764915568635657,0
2555,-0.8745000906228594,0
2556,0.2968451594428248,0
2557,-0.15603312286505575,0
2558,-0.046586526407086847,0
2559,-0.15902842918074822,0
2560,-0.11007194809351939,0
2561,-0.12547429888773737,0
2562,-0.09509468964078414,0
2563,-0.11594640439770167,0
2564,-0.08090045346542832,0
2565,-0.10033976225256074,0
2566,-0.1325286296501616,0
2567,1.3994263997294691,0
2568,6.770482463819317,0
2569,0.21731000106604975,0
2570,-1.3703886405974735,0
2571,0.8442563779889537,0
2572,-0.5244785923444213,0
2573,0.17726814055580842,0
2574,-0.10623262852623147,0
2575,-0.10613577688129328,0
2576,0.03632289278186361,0
2577,-0.050598353715910344,0
2578,-0.03280458236185721,0
2579,-0.04974168684045282,0
2580,-0.0680108282124097,0
2581,-0.13990698349724912,0
2582,-0.020448997456269873,0
2583,0.021219644701772417,0
2584,3.051265424758394,0
2585,6.38964232093406,0
2586,-2.563929588130134,0
2587,0.7652826459553569,0
2588,-0.31735422447310274,0
2589,-0.004116825976684097,0
2590,-0.06665512608282476,0
2591,-0.018916899382968262,0
2592,-0.07097479621139594,0
2593,-0.06229221332754173,0
2594,-0.040876471739585966,0
2595,-0.04724503442656086,0
2596,-0.016424415361200928,0
2597,-0.05699277936126659,0
2598,-0.010833411702753492,0
2599,-0.004343253301534657,0
2600,0.5209725219201914,0
2601,5.237554841534233,0
2602,3.899766978539581,0
2603,-2.8107434651532492,0
2604,1.5668732183497058,0
2605,-0.8215961462368121,0
2606,0.3417660437273983,0
2607,-0.11033414774612335,0
2608,0.04740332789068297,0
2609,-0.09883385668864322,0
2610,0.0030302116460954216,0
2611,0.0174834915355336,0
2612,-0.06785929598224165,0
2613,-0.06890496010166058,0
2614,-0.06401861162654221,0
2615,-0.005905682010080919,0
2616,-0.0012845398547625744,0
2617,1.494229288891805,0
2618,6.781535945229925,0
2619,0.24807725651206472,0
2620,-1.2348773646617757,0
2621,0.7983730661839055,0
2622,-0.5297866991429065,0
2623,0.14675325547649845,0
2624,-0.13168232198271373,0
2625,0.09671630783936572,0
2626,-0.09496949224965665,0
2627,-0.02584393024293275,0
2628,-0.039688248443573125,0
2629,0.027778025044615896,0
2630,-0.11530616000257579,0
2631,-0.12275443158520995,0
2632,-0.08131942563697094,0
2633,0.06420164254943066,0
2634,3.212627671308137,0
2635,6.4343477822971185,0
2636,-2.6190115173754207,0
2637,0.8336116696999376,0
2638,-0.2227267989830506,0
2639,0.053572079561518875,0
2640,-0.17188189374899038,0
2641,-0.06665922584727133,0
2642,-0.02011832912621471,0
2643,0.02178880315230507,0
2644,-0.034650093143914575,0
2645,-0.016849928473730694,0
2646,-0.030690898170218306,0
2647,-0.04545823888661221,0
2648,0.03900836538158485,0
2649,-0.019804279668460607,0
2650,0.440245691299849,0
2651,5.30920166085016,0
2652,3.8162626479014086,0
2653,-2.8380264419126524,0
2654,1.5801563431276384,0
2655,-0.6974270015257212,0
2656,0.3318904870297736,0
2657,-0.13087737953638245,0
2658,-0.0842961552865982,0
2659,-0.05992210013275989,0
2660,-0.08717479982135261,0
2661,-0.015869463510519637,0
2662,-0.12855203636721732,0
2663,0.00981064676152943,0
2664,0.09156138200711125,0
2665,-0.03170853977048351,0
2666,-0.07231081638470979,0
2667,1.4416504888579305,0
2668,6.884011520667879,0
2669,0.25068118652231847,0
2670,-1.1459055211256846,0
2671,0.9037977362865292,0
2672,-0.4509056141273656,0
2673,0.15190341695649806,0
2674,-0.049654948030036374,0
2675,0.01771214537226362,0
2676,-0.015138894841762233,0
2677,-0.0004931343888368531,0
2678,0.011326213775626402,0
2679,-0.04037443145254373,0
2680,-0.025214243385350263,0
2681,-0.0037696424956256756,0
2682,0.01272046643252827,0
2683,0.08150428668894985,0
2684,3.1160492833566407,0
2685,6.424002754679301,0
2686,-2.5892775797908048,0
2687,0.8776977743533418,0
2688,-0.20799896391753198,0
2689,0.09902203523913561,0
2690,-0.02802565859559123,0
2691,0.07487385481720044,0
2692,-0.04378126644720254,0
2693,0.010152075737772256,0
2694,0.017342776991651754,0
2695,-0.02085221789736759,0
2696,-0.0873554783441312,0
2697,-0.050231962459025746,0
2698,-0.035375794612312945,0
2699,0.06037633496319525,0
2700,0.5098617096353345,0
2701,5.353201869693566,0
2702,3.950678095247948,0
2703,-2.809464964847922,0
2704,1.5060102220690608,0
2705,-0.8474653429862503,0
2706,0.26993708968134156,0
2707,-0.12399587734862022,0
2708,0.013774705761590754,0
2709,-0.003187551055447775,0
2710,-0.014552887686688986,0
2711,0.06310120137228038,0
2712,-0.06254534883263065,0
2713,-0.02093125238904063,0
2714,0.04818351752038774,0
2715,-0.15589099512247956,0
2716,0.006491335682499863,0
2717,1.4321315280377156,0
2718,6.826015878264975,0
2719,0.12446797823708004,0
2720,-1.2682523035717592,0
2721,0.7995785519384534,0
2722,-0.5613078217606791,0
2723,0.2533085255777313,0
2724,-0.13638315302628523,0
2725,0.000644102374100005,0
2726,-0.023390619224268865,0
2727,-0.08899344914901719,0
2728,-0.04021490772515454,0
2729,0.011577692874590324,0
2730,-0.03628790018581518,0
2731,-0.009002404911312581,0
2732,0.02059923912326948,0
2733,0.02435647585438646,0
2734,3.3126534232835363,0
2735,6.405398427702385,0
2736,-2.513881789608377,0
2737,0.8702003778938675,0
2738,-0.20932004078088412,0
2739,0.057099820107498124,0
2740,0.011878113953867783,0
2741,0.10551633572875685,0
2742,0.09622886388422151,0
2743,-0.036742397318366114,0
2744,0.041207580648018965,0
2745,0.03470447976583038,0
2746,0.011311819997715425,0
2747,0.03615622060728787,0
2748,0.06288347412916671,0
2749,0.014010953403820681,0
2750,0.48806974172374346,0
2751,5.43964277239365,0
2752,3.9110552002182626,0
2753,-2.8564507501503,0
2754,1.5530031495315613,0
2755,-0.9317445756627285,0
2756,0.3673584689128077,0
2757,-0.15760965214875503,0
2758,-0.057657106716195644,0
2759,0.04679092282320797,0
2760,0.018026015616226763,0
2761,-0.06851865547757588,0
2762,-0.04584140222378279,0
2763,0.021580651100496007,0
2764,-0.04538466432221859,0
2765,-0.15956600795315568,0
2766,-0.07392988765109781,0
2767,1.330721532612702,0
2768,6.816436284300874,0
2769,0.15477829611577262,0
2770,-1.37031354573739,0
2771,0.8802882158461153,0
2772,-0.4664724586569789,0
2773,0.14037993968712312,0
2774,-0.17659298863791068,0
2775,-0.03532595292143878,0
2776,0.011701812008309422,0
2777,0.047160416774503604,0
2778,0.05428254549899183,0
2779,0.055785096351366914,0
2780,0.027385805226480164,0
2781,-0.043694593833564166,0
2782,-0.06475913447562742,0
2783,0.13604692292292875,0
2784,3.2126350848290937,0
2785,6.384305669718955,0
2786,-2.5455457479962975,0
2787,0.8276407487728127,0
2788,-0.21617269953192417,0
2789,0.07363243733353089,0
2790,0.007390641147137663,0
2791,0.015143562458154236,0
2792,-0.005434101238739869,0
2793,0.05687862920676728,0
2794,-0.0169793399433422,0
2795,-0.030601618330385508,0
2796,-0.06068594009888876,0
2797,-0.02627810817205303,0
2798,-0.08487437973251417,0
2799,0.03905135737870628,0
2800,0.4530797438104024,0
2801,5.319133627199451,0
2802,3.776895641044681,0
2803,-2.876986542698853,0
2804,1.6287770683485698,0
2805,-0.8586393188773104,0
2806,0.2998636094536441,0
2807,-0.1927532726241099,0
2808,0.0653620420115165,0
2809,0.03154615336284481,0
2810,0.0495606730300069,0
2811,-0.02268896397312508,0
2812,-0.05133859723326538,0
2813,0.030003379357082364,0
2814,-0.024116222362092397,0
2815,0.10958703539056022,0
2816,-0.007979927233355607,0
2817,1.4646162960866218,0
2818,6.770203162355778,0
2819,0.0932151374624699,0
2820,-1.1205637326224258,0
2821,0.927395283763971,0
2822,-0.4378593786933952,0
2823,0.17581003713907756,0
2824,-0.02411549255333585,0
2825,0.17016388739456914,0
2826,-0.07829219862064275,0
2827,-0.004648155555055072,0
2828,-0.053122688460391795,0
2829,-0.05036046336595481,0
2830,-0.05466584867433852,0
2831,0.022913352193495388,0
2832,0.0020531952540194832,0
2833,0.03686301085567019,0
2834,3.21936739919167,0
2835,6.378133988958197,0
2836,-2.6157292544241106,0
2837,0.8158218917064862,0
2838,-0.2353446532379143,0
2839,0.0985653236329454,0
2840,-0.04172577663213266,0
2841,0.02172263770281789,0
2842,0.04155633775445004,0
2843,0.020188837290507227,0
2844,0.026332219721759073,0
2845,0.0830611964560918,0
2846,0.01060847139671462,0
2847,-0.011934359875783616,0
2848,-0.010871876023249688,0
2849,0.028786583230348373,0
2850,0.46468406917256705,0
2851,5.310639418833153,0
2852,3.7599083852703736,0
2853,-2.8280420592344506,0
2854,1.5876501641318068,0
2855,-0.7997907636082024,0
2856,0.299927129259,0
2857,-0.04732956809567941,0
2858,0.036962404356709624,0
2859,-0.008798468139845191,0
2860,0.05871019681693858,0
2861,-0.006134260230915364,0
2862,-0.014575588383933026,0
2863,-0.05043039468909134,0
2864,-0.002034791680039236,0
2865,-0.09603493868873766,0
2866,0.036050525647787775,0
2867,1.4211243315118414,0
2868,6.750252161064235,0
2869,0.13067960567681633,0
2870,-1.0919650685967899,0
2871,0.8356343881455232,0
2872,-0.5183891802453013,0
2873,0.15941428896832163,0
2874,-0.11261631266083677,0
2875,0.06218728348894022,0
2876,0.048120974915266346,0
2877,0.07555966662977207,0
2878,-0.010927538018899747,0
2879,0.06642075905353326,0
2880,0.02656037093013309,0
2881,0.02515345973330281,0
2882,0.04469100789708398,0
2883,0.26953637416830134,0
2884,3.2556013920077858,0
2885,6.501988710821271,0
2886,-2.5380686361350566,0
2887,0.8039378127892673,0
2888,-0.2547370411721027,0
2889,0.05949330067930178,0
2890,-0.06811544860812951,0
2891,0.05925828343661337,0
2892,0.03335688608054628,0
2893,0.018495673484530593,0
2894,0.033699017864461125,0
2895,-0.000912493855271515,0
2896,0.0605454318399271,0
2897,0.05284813378846185,0
2898,0.048121845647974226,0
2899,-0.023693549984929146,0
2900,0.5259750340919552,0
2901,5.4265017393412345,0
2902,3.924162857251641,0
2903,-2.8268783107422517,0
2904,1.6718358868480914,0
2905,-0.728776636029703,0
2906,0.3647040745831089,0
2907,-0.030745188779195,0
2908,0.09419050623618277,0
2909,-0.011468857878263156,0
2910,-0.05700708337103307,0
2911,-0.00984617711998937,0
2912,-0.012596251861479295,0
2913,0.031039191144477594,0
2914,0.06191286612176707,0
2915,-0.06785988300500032,0
2916,0.03568785026779659,0
2917,1.4762901558147958,0
2918,6.9393944357640835,0
2919,0.08510614773584238,0
2920,-1.1826428779910299,0
2921,0.8019627847191904,0
2922,-0.5253384303622995,0
2923,0.1585128491837262,0
2924,0.00189353264313364,0
2925,-0.034623944172153726,0
2926,0.06437032548618625,0
2927,0.03334279237395887,0
2928,0.03533671160289769,0
2929,0.05498919379242999,0
2930,0.012446414168932425,0
2931,0.07414293848068414,0
2932,0.04573397824297912,0
2933,0.08334366963635102,0
2934,3.26556072711201,0
2935,6.423832852894267,0
2936,-2.6496477473361755,0
2937,0.9368059949076463,0
2938,-0.2560880764389305,0
2939,0.010076097238561732,0
2940,-0.036959767157215,0
2941,-0.030317883281570795,0
2942,-0.042885533520965795,0
2943,0.0036170193625774654,0
2944,-0.022031616600409885,0
2945,-0.07784777809942012,0
2946,0.01603004043379125,0
2947,0.13045226075610908,0
2948,-0.03202864610435327,0
2949,-0.10648794679851582,0
2950,0.5137044389894377,0
2951,5.378757518588231,0
2952,3.616882785428483,0
2953,-2.815231481591421,0
2954,1.533789682202973,0
2955,-0.8075079002327157,0
2956,0.3313128272526547,0
2957,-0.13271408343929786,0
2958,0.05716612555869023,0
2959,-0.05047049284861037,0
2960,0.022328867398593275,0
2961,-0.0423446381967966,0
2962,0.013313194186570954,0
2963,-0.05643677294922289,0
2964,-0.03971587997791999,0
2965,-0.030782013615711812,0
2966,-0.09361677448439637,0
2967,1.4338727655486814,0
2968,6.82148923151623,0
2969,0.0038454144087955167,0
2970,-1.2932624345611905,0
2971,0.8676251643756572,0
2972,-0.461393308095406,0
2973,0.16131037946412644,0
2974,-0.12985648866733465,0
2975,-0.01809545207096695,0
2976,0.08857004742267248,0
2977,0.06294302378845068,0
2978,0.014145844352716031,0
2979,-0.03805754308208001,0
2980,-0.06555513396710316,0
2981,-0.022622223455258723,0
2982,-0.0031552400955054006,0
2983,0.17273659826583404,0
2984,3.353850550064123,0
2985,6.341111685186832,0
2986,-2.635767599698253,0
2987,0.8956596619986731,0
2988,-0.2935301265263157,0
2989,0.0434953916460845,0
2990,-0.03809549570145616,0
2991,0.05993424769946469,0
2992,-0.017248406315576923,0
2993,-0.06996918434307786,0
2994,0.041064403610282206,0
2995,0.013007530402135276,0
2996,-0.007585815297100933,0
2997,0.07371673107132497,0
2998,0.05345492016321102,0
2999,0.024526527207916232,0
3000,0.5251820368465167,0
3001,5.443828211761203,0
3002,3.7167889458512744,0
3003,-2.8085535379777933,0
3004,1.5718123883113946,0
3005,-0.7419575411750269,0
3006,0.36384048215079834,0
3007,-0.0764286560235368,0
3008,0.05331813738597336,0
3009,0.06839603638354701,0
3010,0.05863524926360626,0
3011,-0.032134940542608376,0
3012,-0.014701162727670972,0
3013,0.09382267394049496,0
3014,-0.051914915481942374,0
3015,-0.097835308739475,0
3016,0.008436868631803096,0
3017,1.5398086027166131,0
3018,6.886229487943473,0
3019,0.025580004048789295,0
3020,-1.200830853726958,0
3021,0.8269753040998081,0
3022,-0.5002568015066271,0
3023,0.24400419166617765,0
3024,-0.0035593482268348117,0
3025,0.08456547951610079,0
3026,0.0804256704981859,0
3027,0.012957145882464808,0
3028,-0.005888314557811886,0
3029,0.015222127492261456,0
3030,0.003600683084968307,0
3031,0.014024345020899002,0
3032,-0.074452659395787,0
3033,0.024042905471309196,0
3034,3.2518875063568458,0
3035,6.411027390364138,0
3036,-2.6231170268607134,0
3037,0.7945134083545343,0
3038,-0.3522473029121167,0
3039,0.13450755701316397,0
3040,-0.12452477898684805,0
3041,0.006190263815848866,0
3042,-0.011664340486493126,0
3043,0.01902288275087908,0
3044,-0.02086502155928711,0
3045,0.038512691300463316,0
3046,-0.013616710572708846,0
3047,-0.041828778478136014,0
3048,-0.04889462624587075,0
3049,0.0978323560225102,0
3050,0.4692883538298844,0
3051,5.4186320481265104,0
3052,3.7649730046940584,0
3053,-2.713604762799681,0
3054,1.6483860305474944,0
3055,-0.7845160816977413,0
3056,0.2947006322286285,0
3057,-0.13097787046956683,0
3058,0.09920722369082248,0
3059,0.08019581699552605,0
3060,0.011391124407953448,0
3061,0.02301428405603998,0
3062,0.05501006890794655,0
3063,-0.05791114023150376,0
3064,-0.005811441284806218,0
3065,0.002234462779280759,0
3066,0.07991805123785871,0
3067,1.479655316655992,0
3068,6.984013031161639,0
3069,0.023044745055398663,0
3070,-1.145060657004604,0
3071,0.8463233728878812,0
3072,-0.514856163373888,0
3073,0.1541665176912866,0
3074,-0.14999802351209662,0
3075,0.009299523747095358,0
3076,0.03021595122433642,0
3077,-0.08413004944569923,0
3078,-0.011105801339688304,0
3079,-0.06006523940244672,0
3080,0.14101709840562343,0
3081,0.04134519774337958,0
3082,-0.006933173701973165,0
3083,0.01712954692974472,0
3084,3.2731589994269386,0
3085,6.3770792705349635,0
3086,-2.6072965341942997,0
3087,0.9301901899994024,0
3088,-0.3262462718981219,0
3089,-0.007411008087816265,0
3090,-0.015674958329981212,0
3091,-0.05072046623389606,0
3092,-0.015005670397414666,0
3093,0.017455944745380335,0
3094,-0.08916163006694908,0
3095,0.03649980415790383,0
3096,-0.04523860015672293,0
3097,-0.04445097637690321,0
3098,0.01514586140755176,0
3099,0.009114231963806226,0
3100,0.4563398141651463,0
3101,5.408939069340551,0
3102,3.586614239069158,0
3103,-2.7907507049123756,0
3104,1.5124900795568674,0
3105,-0.7994072770812573,0
3106,0.2600098037609357,0
3107,-0.019135448057506124,0
3108,0.0038763216825892857,0
3109,0.09312647397381554,0
3110,0.03382406630203519,0
3111,0.04325656806255715,0
3112,0.042197874437569075,0
3113,0.059796750193220644,0
3114,0.07436764319911382,0
3115,-0.005394682892185282,0
3116,0.1231449490569875,0
3117,1.6183142428666601,0
3118,6.8226337078291035,0
3119,0.13531157594100632,0
3120,-1.0271583408975795,0
3121,0.8479429803885359,0
3122,-0.3644310792108822,0
3123,0.21580634898184822,0
3124,-0.04402224745895843,0
3125,0.007972829405566234,0
3126,0.057224194253696875,0
3127,0.08429731800872886,0
3128,0.06539744523531624,0
3129,-0.03023158624142047,0
3130,0.058855210886358984,0
3131,0.17798291706312033,0
3132,-0.013752287010424386,0
3133,0.16667355964632583,0
3134,3.4074747169181037,0
3135,6.400698984058556,0
3136,-2.5839424723283146,0
3137,0.9864163550307427,0
3138,-0.203156351031975,0
3139,0.18115009916827401,0
3140,0.04851086117014537,0
3141,0.08298909958094869,0
3142,-0.02300858594054206,0
3143,0.001176838733977616,0
3144,-0.041131459178064246,0
3145,0.028203432054098823,0
3146,-0.03552465649338169,0
3147,0.11419090126119194,0
3148,0.027281927339269006,0
3149,0.026581174531034736,0
3150,0.5106818149827682,0
3151,5.411035312777932,0
3152,3.745910496557201,0
3153,-2.7943244868904964,0
3154,1.6708808581885473,0
3155,-0.6770170260700961,0
3156,0.37188826208043496,0
3157,-0.018821809230362474,0
3158,0.04270425850722045,0
3159,0.008690726712029858,0
3160,0.0064076941808326425,0
3161,-0.006739429915123701,0
3162,-0.03458359324185326,0
3163,0.03532559064292045,0
3164,-0.0382137460660088,0
3165,-0.03475230602034689,0
3166,0.010215882871217878,0
3167,1.5068456672515933,0
3168,6.8995759642948125,0
3169,0.08666615176870446,0
3170,-1.1503758081486384,0
3171,0.8463172291852153,0
3172,-0.42751974717749,0
3173,0.205298650118189,0
3174,-0.06541031210638817,0
3175,0.08889140798625293,0
3176,0.044712453835841846,0
3177,0.05313101609331599,0
3178,-0.00893339779930822,0
3179,0.054903092020889145,0
3180,0.014914515983175232,0
3181,0.10426834208324992,0
3182,0.07282167804062002,0
3183,0.1529769744304249,0
3184,3.351330049609717,0
3185,6.494433216683009,0
3186,-2.618493791199506,0
3187,0.9727818885522181,0
3188,-0.17181535542315507,0
3189,0.12005640466678791,0
3190,0.06438116783634724,0
3191,0.07390547281265554,0
3192,0.06248890767384784,0
3193,0.08255782901110811,0
3194,-0.013675973925399106,0
3195,0.08873677125826475,0
3196,0.09282598654409163,0
3197,0.04667445572539987,0
3198,-0.017994103745702976,0
3199,0.044643319929550965,0
3200,0.4792091933674744,0
3201,5.546097741669711,0
3202,3.6259955091945004,0
3203,-2.756656747050332,0
3204,1.5733398420897222,0
3205,-0.7592700524639976,0
3206,0.3455174365216187,0
3207,-0.11200900054408097,0
3208,0.009471057629234975,0
3209,0.025679055845690357,0
3210,-0.08002582170604836,0
3211,-0.08289909397198315,0
3212,0.04065049708995763,0
3213,-0.018801242180940838,0
3214,0.001989676310833766,0
3215,-0.010801366668366692,0
3216,-0.015823377425080172,0
3217,1.5319682348445836,0
3218,6.84882667776196,0
3219,0.002504667627680899,0
3220,-0.979779884865349,0
3221,0.7800346049102895,0
3222,-0.4121813979853688,0
3223,0.2910472903039738,0
3224,-0.04876469841146011,0
3225,0.08460767008365702,0
3226,0.16161847094002849,0
3227,0.002953578520291357,0
3228,0.07103744251447945,0
3229,-0.018787886920318388,0
3230,0.07546445554023878,0
3231,0.03173669735443354,0
3232,0.06645852129562509,0
3233,0.12065543924438171,0
3234,3.325478028786706,0
3235,6.4534680014743,0
3236,-2.611039961184694,0
3237,0.9005159029993731,0
3238,-0.29848305924846086,0
3239,0.06261805944141224,0
3240,0.02027253179146979,0
3241,-0.030349288465779237,0
3242,-0.014814231850542064,0
3243,-0.0011553439653152267,0
3244,-0.020032632891041124,0
3245,-0.032743376342707645,0
3246,-0.04239043216324986,0
3247,0.034998676994155424,0
3248,0.016449698848365946,0
3249,0.03846291107500988,0
3250,0.4521136598880033,0
3251,5.472794433855042,0
3252,3.7337875091712367,0
3253,-2.8823833275366924,0
3254,1.6646394538060827,0
3255,-0.7484683807782975,0
3256,0.3732583627238164,0
3257,-0.10025056380689817,0
3258,-0.02939818923119172,0
3259,0.03363736818790762,0
3260,0.010755448343402776,0
3261,0.0895277769641261,0
3262,-0.02406089676811638,0
3263,-0.049745147090025935,0
3264,0.04111773282085955,0
3265,-0.02241385554165778,0
3266,0.04760290192899184,0
3267,1.560934121806479,0
3268,6.8487517376715985,0
3269,0.06191034090920224,0
3270,-1.0084972526533544,0
3271,0.9570938157420101,0
3272,-0.3949354031493864,0
3273,0.2392060072963672,0
3274,-0.033767555887295714,0
3275,0.027006228774859545,0
3276,-0.016067738882052308,0
3277,0.0024692459553691324,0
3278,-0.0973502553580202,0
3279,-0.011315155194584266,0
3280,-0.055062765881454825,0
3281,-0.009560848361994851,0
3282,-0.06118923576301129,0
3283,0.002260510044705337,0
3284,3.3201628037484525,0
3285,6.266789755300538,0
3286,-2.7102362886915126,0
3287,0.9137758182798327,0
3288,-0.3056222889413273,0
3289,0.15504393948096104,0
3290,-0.08433532199792884,0
3291,0.02604983758623021,0
3292,-0.09022550958461698,0
3293,0.05526182085444143,0
3294,0.023588878541105158,0
3295,0.007747176951878079,0
3296,0.011050681807586182,0
3297,0.006204745966311284,0
3298,0.0636267779507335,0
3299,-0.11686656825011825,0
3300,0.3881735550265659,0
3301,5.484449613434793,0
3302,3.4888365352623096,0
3303,-2.8493748890592814,0
3304,1.58102247236415,0
3305,-0.7509911975818534,0
3306,0.37879075147982116,0
3307,-0.12638360294829928,0
3308,0.0063790483503316925,0
3309,-0.03289960467691315,0
3310,-0.04969845793270945,0
3311,0.05440114417998933,0
3312,0.09532539927874918,0
3313,-0.021037355683075493,0
3314,0.061697614012128754,0
3315,0.023372435097713282,0
3316,-0.0411581424049589,0
3317,1.4614597832267817,0
3318,6.864324087568214,0
3319,-0.05816469218839558,0
3320,-1.0055316287357456,0
3321,0.8299061335935127,0
3322,-0.41673269414304814,0
3323,0.18249514355408242,0
3324,-0.049523720399126885,0
3325,0.014373554182281728,0
3326,-0.020365499459656197,0
3327,-0.024061713780479624,0
3328,0.00976144774314544,0
3329,-0.059124158089993786,0
3330,0.049560879565433855,0
3331,-0.04125372374679552,0
3332,-0.010821397410311191,0
3333,0.06556598184333468,0
3334,3.2930535619704626,0
3335,6.2181063801158185,0
3336,-2.70773263531342,0
3337,0.8761975504454017,0
3338,-0.344863219595959,0
3339,-0.031471241846373704,0
3340,0.003462910994932414,0
3341,0.00047346788472277593,0
3342,-0.016296274457580254,0
3343,-0.03567105634257307,0
3344,-0.09282840397524225,0
3345,-0.045852950940448424,0
3346,-0.07724418560045151,0
3347,-0.06887643104017051,0
3348,-0.045802980581804,0
3349,-0.04365736831341303,0
3350,0.3917553406659783,0
3351,5.356126509896038,0
3352,3.37667076939904,0
3353,-2.8904623674418906,0
3354,1.4794764949173316,0
3355,-0.8922027991236794,0
3356,0.19447742148870914,0
3357,-0.23137874270683956,0
3358,-0.12116194797356515,0
3359,-0.038551006532436295,0
3360,-0.04489923252639542,0
3361,0.031310746895940725,0
3362,-0.03893111128778699,0
3363,-0.07536343103722257,0
3364,-0.10940958117328141,0
3365,-0.1343191191310112,0
3366,0.016330537247763108,0
3367,1.4655975584815513,0
3368,6.826982110813972,0
3369,-0.08905466030306078,0
3370,-1.0396352746749358,0
3371,0.7459936820113515,0
3372,-0.4157157051208186,0
3373,0.2097748190859131,0
3374,-0.0016657288547234778,0
3375,-0.09926767776648275,0
3376,-0.020621013199889585,0
3377,-0.00509936251837669,0
3378,-0.01929670994263542,0
3379,-0.03697485144593818,0
3380,0.015562855997444534,0
3381,0.052094521610077715,0
3382,-0.017930984843479353,0
3383,0.1353043970567583,0
3384,3.40082876163552,0
3385,6.35341461483198,0
3386,-2.6379148937421952,0
3387,1.0129863548153457,0
3388,-0.23357243358965707,0
3389,0.04185570076911174,0
3390,-0.036365954617064745,0
3391,0.04721603450954264,0
3392,-0.06143646284434188,0
3393,0.03405015093205253,0
3394,-0.0521181684790117,0
3395,-0.1407149792714231,0
3396,-0.04280471931542943,0
3397,-0.04171084019348055,0
3398,-0.14048518614543096,0
3399,-0.1375911262774498,0
3400,0.4172880741707272,0
3401,5.472317141190206,0
3402,3.4766289005138606,0
3403,-2.8761168629510836,0
3404,1.536684871271179,0
3405,-1.0167475494224425,0
3406,0.1599007670171596,0
3407,-0.15663096125650622,0
3408,-0.0761160044588008,0
3409,-0.0699282098896257,0
3410,-0.02982121397631883,0
3411,-0.16633818170207632,0
3412,-0.15187483851196193,0
3413,-0.08102344633912437,0
3414,-0.06875418871392734,0
3415,-0.1548482452790102,0
3416,-0.11169905555857719,0
3417,1.4309625996455628,0
3418,6.812497408176767,0
3419,-0.218131810676575,0
3420,-1.131778160198041,0
3421,0.7244338594485128,0
3422,-0.5596088688977591,0
3423,-0.0012018218356757149,0
3424,-0.17843052068127974,0
3425,-0.06019409446320181,0
3426,-0.14428134099375997,0
3427,-0.05500849782620223,0
3428,-0.08293029669678664,0
3429,-0.061385950800823604,0
3430,-0.07216442486175717,0
3431,-0.18003321103432707,0
3432,-0.11589974732540835,0
3433,0.06514374791420297,0
3434,3.308589777287241,0
3435,6.32982156905908,0
3436,-2.7464931681941924,0
3437,0.9580062671831779,0
3438,-0.36765384876090823,0
3439,-0.01738349218306881,0
3440,-0.0879394618903505,0
3441,0.0173930760394741,0
3442,0.023325982728289757,0
3443,-0.04028829509334445,0
3444,-0.011341619121849509,0
3445,-0.011360091757728983,0
3446,0.013519344665906728,0
3447,-0.0273000376587658,0
3448,-0.004260397956859455,0
3449,-0.18057214126142704,0
3450,0.4788819914594332,0
3451,5.559768862735607,0
3452,3.3699377181894428,0
3453,-2.754453530698708,0
3454,1.5461011103549893,0
3455,-0.8013467541776513,0
3456,0.3130390930810828,0
3457,-0.16356030149303863,0
3458,-0.043708483702799374,0
3459,0.03948260623710774,0
3460,-0.027930365736146684,0
3461,0.05557899102604565,0
3462,-0.014075027899935252,0
3463,-0.09184140306787739,0
3464,-0.04047543805108779,0
3465,-0.06410897006087518,0
3466,-0.009342328583984635,0
3467,1.5524267184219946,0
3468,6.852405603690072,0
3469,-0.1813359303970794,0
3470,-1.1435006390623106,0
3471,0.8031406090787155,0
3472,-0.45409540068204224,0
3473,0.08258084474693345,0
3474,-0.09434047719615395,0
3475,-0.029967513294455517,0
3476,-0.1167145148470053,0
3477,0.005866032849939792,0
3478,-0.03979094636833228,0
3479,-0.06228665850249627,0
3480,-0.08382070256131197,0
3481,-0.09164228575392722,0
3482,-0.10979242880363899,0
3483,0.0024345217480568754,0
3484,3.349165857374038,0
3485,6.139216493241358,0
3486,-2.695291388383867,0
3487,0.9668407422989193,0
3488,-0.3650421937010987,0
3489,-0.034806708201221434,0
3490,-0.06922900362853035,0
3491,0.06245379495058488,0
3492,-0.010047885453253573,0
3493,-0.012228085961952217,0
3494,0.08210023308953243,0
3495,-0.004583316620798521,0
3496,-0.03261505298609485,0
3497,0.012132025285172765,0
3498,-0.05226317346424593,0
3499,-0.10304476317865077,0
3500,0.5348499316193166,0
3501,5.479668106558742,0
3502,3.5174680977085204,0
3503,-2.7740502304514374,0
3504,1.511756798619556,0
3505,-0.9095141458639606,0
3506,0.35450875619932276,0
3507,-0.1942143959159504,0
3508,0.10170983403297484,0
3509,-0.018678758309854937,0
3510,-0.09263154806741816,0
3511,-0.01728177992902209,0
3512,0.033578599427502825,0
3513,-0.006217568290316486,0
3514,-0.06174340506414219,0
3515,-0.11822174305209363,0
3516,-0.020517715502902073,0
3517,1.5045446409632883,0
3518,6.845146888228015,0
3519,-0.21205046589626317,0
3520,-1.0953979041295947,0
3521,0.7352474504645579,0
3522,-0.36630473954287174,0
3523,0.04149221965042961,0
3524,-0.09965483752949732,0
3525,-0.07489019201283,0
3526,-0.11660361831473773,0
3527,0.10826665409835337,0
3528,0.028038854369214397,0
3529,0.0588385809444638,0
3530,-0.007241967715361904,0
3531,-0.07893408461987697,0
3532,0.0250171638498913,0
3533,0.06502360834267808,0
3534,3.4361292067867164,0
3535,6.211845479542101,0
3536,-2.7042873469222894,0
3537,1.0424813345552792,0
3538,-0.36884609365005006,0
3539,0.13212487137976647,0
3540,-0.013840133327629192,0
3541,0.07915653818845132,0
3542,-0.08661801204775788,0
3543,-0.020697716319152057,0
3544,0.018162789497135644,0
3545,-0.03431039401184579,0
3546,0.049100012224692506,0
3547,0.012783405758412664,0
3548,-0.05793642020494799,0
3549,-0.013149787997063605,0
3550,0.4941666284078229,0
3551,5.511874215919133,0
3552,3.4298198549281627,0
3553,-2.7268521046751757,0
3554,1.6501062472868284,0
3555,-0.7623008278637623,0
3556,0.336003867950368,0
3557,-0.1325418552627607,0
3558,-0.06022212672942672,0
3559,-0.11137359830426924,0
3560,-0.06148287389970955,0
3561,0.05461598910076959,0
3562,-0.02774907905772553,0
3563,-0.14191101623604052,0
3564,-0.05444384699422421,0
3565,-0.15874474334123026,0
3566,-0.11519648214218042,0
3567,1.487585869048609,0
3568,6.8785735067582054,0
3569,-0.23923312776311817,0
3570,-1.0449833849079504,0
3571,0.7939791674812224,0
3572,-0.47504172918302906,0
3573,0.1709592463900831,0
3574,-0.07455534585407408,0
3575,0.14027882791104385,0
3576,-0.041774834585905515,0
3577,0.0273159399103538,0
3578,-0.03659777919369858,0
3579,0.026392690652669026,0
3580,-0.0374770136202409,0
3581,-0.0380287033948814,0
3582,0.0676530729999659,0
3583,0.06562842734316121,0
3584,3.4421881476843614,0
3585,6.332579292865866,0
3586,-2.8115916674056045,0
3587,1.027619202019897,0
3588,-0.43735447848146203,0
3589,0.09937821479083538,0
3590,-0.1434469732735007,0
3591,0.002950380120989733,0
3592,-0.03878638268817715,0
3593,0.05461124405319551,0
3594,0.07217196597595281,0
3595,-0.06596646086610838,0
3596,-0.1282011958207503,0
3597,0.02733276589959029,0
3598,-0.09502595683995746,0
3599,-0.01234013693463296,0
3600,0.45271401622255353,0
3601,5.520356678671121,0
3602,3.458659493157127,0
3603,-2.8336085834955105,0
3604,1.556226672831969,0
3605,-0.8495563122096959,0
3606,0.23158578865392376,0
3607,-0.13269145908519728,0
3608,-0.012146215806144379,0
3609,-0.08636109034363001,0
3610,-0.06360310349197272,0
3611,-0.1342382803943968,0
3612,-0.13063675476322087,0
3613,-0.06919436545849125,0
3614,-0.007127432218539495,0
3615,-0.12831372941177877,0
3616,0.03552466025377961,0
3617,1.470590448935508,0
3618,6.865073707432353,0
3619,-0.13403656028387767,0
3620,-1.036485999892207,0
3621,0.6423287419104152,0
3622,-0.43306031294190944,0
3623,0.07692553462325422,0
3624,-0.09814476491215025,0
3625,0.00772865172670624,0
3626,0.03184977967061483,0
3627,-0.05942899953687058,0
3628,-0.03921969967957397,0
3629,0.02228246399703638,0
3630,-0.06448497706563927,0
3631,-0.01925213469036109,0
3632,0.03043055838661212,0
3633,0.005695238780873968,0
3634,3.536157970829863,0
3635,6.225410936191253,0
3636,-2.8066266640932676,0
3637,1.1059756350617782,0
3638,-0.3625779014930477,0
3639,0.1321939323159052,0
3640,-0.08026582680523607,0
3641,0.03921520757328388,0
3642,0.11182927834246481,0
3643,-0.027579162404166777,0
3644,-0.13746735954601597,0
3645,0.01556702441013793,0
3646,-0.018792674238326184,0
3647,-0.09903338678478174,0
3648,0.0021804238788454555,0
3649,-0.04169606539434758,0
3650,0.4726355557447181,0
3651,5.4789205092025535,0
3652,3.435377290281869,0
3653,-2.8184846138393116,0
3654,1.440703035239852,0
3655,-0.9744583342669012,0
3656,0.2873413364179997,0
3657,-0.2354785266762433,0
3658,-0.04031934945807863,0
3659,-0.09028320023461493,0
3660,-0.0970120767900113,0
3661,0.003301107140618896,0
3662,-0.04939111217005205,0
3663,-0.09880829811684351,0
3664,-0.12077348690599449,0
3665,-0.038726598960324855,0
3666,0.05596242814318742,0
3667,1.6776966096623995,0
3668,6.928593400878065,0
3669,-0.24657971350243615,0
3670,-0.9420550182333313,0
3671,0.7000421120631157,0
3672,-0.3969588018273824,0
3673,0.19344125523824765,0
3674,-0.0490850289293676,0
3675,-0.0638144816705296,0
3676,-0.01840831037705614,0
3677,-0.003594173056771021,0
3678,0.0067579409003719615,0
3679,-0.055653754808741546,0
3680,-0.06935542235775233,0
3681,0.03923408554930219,0
3682,0.02280641135824854,0
3683,0.11022146166710409,0
3684,3.4871053890726587,0
3685,6.180367670900301,0
3686,-2.760274282231495,0
3687,1.05810394217303,0
3688,-0.33345658265450046,0
3689,0.10722258476818419,0
3690,0.05595515446983241,0
3691,0.05458226520393025,0
3692,0.0013415728062537088,0
3693,0.08301498570930539,0
3694,0.05233134196197292,0
3695,0.014465150809834092,0
3696,0.024617740851279643,0
3697,0.06667470464854006,0
3698,-0.03786200657787411,0
3699,-0.06309873076974601,0
3700,0.5243951490274866,0
3701,5.57587163432693,0
3702,3.45204004645611,0
3703,-2.7098321885303815,0
3704,1.525896198901249,0
3705,-0.7809547623602093,0
3706,0.2842680668688148,0
3707,-0.13748297493941336,0
3708,0.020658594169232266,0
3709,0.014238867086922537,0
3710,0.00861243528878262,0
3711,-0.012706032937726902,0
3712,-0.08010377137080603,0
3713,-0.025550295319552434,0
3714,-0.006775942196789996,0
3715,-0.04585747370441072,0
3716,0.020188597904020812,0
3717,1.5618864348878991,0
3718,6.900810600502234,0
3719,-0.271944878161849,0
3720,-0.981185291729174,0
3721,0.6315831315881888,0
3722,-0.4082075171972771,0
3723,0.24444263609404698,0
3724,-0.028028904960528636,0
3725,0.028587027243231967,0
3726,0.014036995385874483,0
3727,0.0677092164159084,0
3728,-0.017445879306712524,0
3729,-0.029500032129582167,0
3730,0.004000830195139374,0
3731,-0.0162664932755435,0
3732,-0.03704780064168635,0
3733,0.11110899362379886,0
3734,3.5143741386621152,0
3735,6.166173470716465,0
3736,-2.629112704030632,0
3737,1.0226192411030526,0
3738,-0.4150734569550922,0
3739,0.11394277773484675,0
3740,-0.12157550495015718,0
3741,0.06367426221309544,0
3742,0.04305340656480759,0
3743,-0.06397302543141085,0
3744,0.04274796975368096,0
3745,0.008225834737005621,0
3746,-0.03730861648718649,0
3747,-0.020252875114891145,0
3748,0.043142260779702395,0
3749,-0.02798033764845355,0
3750,0.4772374033202215,0
3751,5.687602204498799,0
3752,3.3184604342629385,0
3753,-2.720750596295246,0
3754,1.5163617628382595,0
3755,-0.8662543589719179,0
3756,0.36527699189013246,0
3757,-0.1382279971176353,0
3758,0.04435648721716545,0
3759,-0.03376461357974239,0
3760,-0.017650424811326525,0
3761,-0.018662235585311174,0
3762,0.01837471565132304,0
3763,0.013255484047919621,0
3764,-0.053453277043956596,0
3765,0.04793658308767634,0
3766,0.04957010972605435,0
3767,1.6349215616274255,0
3768,6.892723792416037,0
3769,-0.3264440519107509,0
3770,-0.9507007653018377,0
3771,0.7220152769886693,0
3772,-0.41920479860044074,0
3773,0.15156074337288158,0
3774,-0.08309420130524652,0
3775,0.013243134261580098,0
3776,-0.12860278771929792,0
3777,0.03212447454833809,0
3778,-0.021792286076629266,0
3779,0.06274385943628032,0
3780,-0.012690140636353585,0
3781,0.042130556644971236,0
3782,-0.06263013354594582,0
3783,0.05667453647177673,0
3784,3.5122596039588765,0
3785,6.190320114982559,0
3786,-2.7464459455774035,0
3787,1.047989546128802,0
3788,-0.3817005319720856,0
3789,0.11707979622272942,0
3790,0.008893235862507065,0
3791,-0.014130444626067105,0
3792,-0.06287796263632686,0
3793,-0.010878658865840874,0
3794,0.006614727877984918,0
3795,-0.010040714809458718,0
3796,0.054115960746617564,0
3797,-0.07433626200797,0
3798,-0.08315350943964367,0
3799,0.011319509163063617,0
3800,0.5561277713016235,0
3801,5.67103139071881,0
3802,3.2938725998750575,0
3803,-2.650546564525311,0
3804,1.5388946484983141,0
3805,-0.7902498497232288,0
3806,0.23840746378073913,0
3807,-0.08784896028349792,0
3808,-0.030658455141433286,0
3809,-0.11828273873387579,0
3810,-0.04004380305234585,0
3811,-0.05941850088036685,0
3812,-0.06660138949588963,0
3813,0.006132468759846951,0
3814,-0.1241562874043272,0
3815,-0.08320755214333768,0
3816,-0.1381196909513875,0
3817,1.52223599827648,0
3818,6.867316836140387,0
3819,-0.3477619887920502,0
3820,-0.9273592997446312,0
3821,0.7376695357127474,0
3822,-0.25623742248901304,0
3823,0.11801415721932851,0
3824,-0.10001244430218253,0
3825,-0.08827308477929482,0
3826,-0.09440252728971904,0
3827,-0.030733176367226063,0
3828,-0.03691448328776538,0
3829,-0.135258903506975,0
3830,0.017210906372098406,0
3831,-0.003720241571461308,0
3832,-0.11345437128598468,0
3833,-0.007901872912401776,0
3834,3.325260841233524,0
3835,6.142750251315827,0
3836,-2.8455919045216005,0
3837,0.9443822095549854,0
3838,-0.42569700523511683,0
3839,0.0791664955684692,0
3840,-0.11320384618504423,0
3841,-0.010232819281526636,0
3842,-0.07494754966905234,0
3843,-0.04831251871323869,0
3844,0.035622408556031174,0
3845,0.00823293121176806,0
3846,0.053559521146465575,0
3847,0.016963206502870986,0
3848,-0.03430249701064088,0
3849,0.04847358506256023,0
3850,0.5768122065058294,0
3851,5.557417495816538,0
3852,3.349729401897396,0
3853,-2.7075246750939463,0
3854,1.5576447929776989,0
3855,-0.8242846028980942,0
3856,0.42218561708270724,0
3857,-0.17586346215527357,0
3858,0.04104319795928755,0
3859,0.056604261673824735,0
3860,-0.005852271721668445,0
3861,-0.05594505225549519,0
3862,-0.0025867034638624798,0
3863,0.06408753374866648,0
3864,0.002159082011914174,0
3865,0.008493462699830616,0
3866,0.05228662583290927,0
3867,1.6500967539175335,0
3868,6.948264664338844,0
3869,-0.2658471597872857,0
3870,-0.9103744455365688,0
3871,0.6997691138990683,0
3872,-0.27384243965799976,0
3873,0.16010415164376537,0
3874,-0.029155236810701653,0
3875,-0.07769961086873697,0
3876,-0.016138695998843034,0
3877,0.08476052792524777,0
3878,0.02917468499207001,0
3879,-0.02648615709822025,0
3880,0.02838945209901353,0
3881,-0.016735242329576606,0
3882,-0.04553740831656801,0
3883,0.04932315581561923,0
3884,3.4600070623496153,0
3885,6.118680162635849,0
3886,-2.894504361986315,0
3887,1.0345061591664197,0
3888,-0.3424519412420849,0
3889,0.2319759259556851,0
3890,-0.1302887334817534,0
3891,-0.10963909767068174,0
3892,-0.1280820217264056,0
3893,0.043586004234718284,0
3894,-0.026561915806679534,0
3895,0.03170711361501995,0
3896,0.0012365829468412165,0
3897,0.04690285009571944,0
3898,0.033986022078543954,0
3899,-0.027050472869283033,0
3900,0.623882654924316,0
3901,5.64804679105162,0
3902,3.5001907581793534,0
3903,-2.6531618718390346,0
3904,1.607741966865174,0
3905,-0.7247825181216216,0
3906,0.36159294856398405,0
3907,-0.06963139543580661,0
3908,0.05525259417577378,0
3909,0.10209528106331946,0
3910,0.013207594261274457,0
3911,0.03204831623458251,0
3912,0.009756687044403694,0
3913,0.0074268517440462135,0
3914,-0.005915029225702958,0
3915,0.05139494030477301,0
3916,-0.028403174556633347,0
3917,1.6850436705466674,0
3918,6.97454213931987,0
3919,-0.22307736187711003,0
3920,-0.8378874118529663,0
3921,0.8407981934875023,0
3922,-0.22568244010021887,0
3923,0.17589932535971026,0
3924,0.07140379501519738,0
3925,0.08465752299219256,0
3926,0.059641124967091494,0
3927,0.05244335138354621,0
3928,-0.0334282908086581,0
3929,0.09069707100453207,0
3930,0.10688246285637165,0
3931,-0.013669746523369893,0
3932,-0.0552321021357447,0
3933,0.12805238309906491,0
3934,3.632702817502838,0
3935,6.103730881515009,0
3936,-2.7961591006140694,0
3937,1.1163148150697317,0
3938,-0.41498728173255295,0
3939,0.10933847881494355,0
3940,-0.12356470848126327,0
3941,-0.051124581472656375,0
3942,-0.009822337521993057,0
3943,-0.08379549793026139,0
3944,0.0684652088276658,0
3945,-0.07001937469747949,0
3946,0.03463752214013479,0
3947,-0.053296046093310234,0
3948,-0.03362928982796638,0
3949,-0.05724850295220047,0
3950,0.4973368197843779,0
3951,5.625329032715127,0
3952,3.201315291628336,0
3953,-2.7073848773734466,0
3954,1.5240640015125775,0
3955,-0.9141848569407321,0
3956,0.32915003811213706,0
3957,-0.18442268085543756,0
3958,0.06984471781675088,0
3959,0.05044383638146687,0
3960,-0.02617403977364749,0
3961,0.14194598796787247,0
3962,0.0737266348792702,0
3963,0.10954700499360562,0
3964,0.119664165298567,0
3965,0.046377820064648155,0
3966,0.04521411793101682,0
3967,1.7023238783306835,0
3968,6.945694821111806,0
3969,-0.364487577227214,0
3970,-0.8368492661492142,0
3971,0.7789138876296771,0
3972,-0.4369398950300359,0
3973,0.1908185295077347,0
3974,-0.1151301582649788,0
3975,-0.05195588809037835,0
3976,-0.03286624255814151,0
3977,-0.036706112465231255,0
3978,-0.04203822913161077,0
3979,-0.01082770762825393,0
3980,-0.008535421238145439,0
3981,-0.0973491627505892,0
3982,-0.0009672778371173328,0
3983,0.06486762556286654,0
3984,3.5916552985392878,0
3985,6.207703593271899,0
3986,-2.753672878106767,0
3987,1.2533480166992554,0
3988,-0.36871757322920085,0
3989,0.14992682843469488,0
3990,0.02247450048804811,0
3991,0.02121669455414739,0
3992,0.0012088136622514685,0
3993,0.03902059772458198,0
3994,0.002020438747148662,0
3995,0.03582168293190431,0
3996,0.012212847229525649,0
3997,0.09399840563685283,0
3998,-0.03033193867099085,0
3999,0.05854200193052363,0
4000,0.4903810934357811,0
4001,5.6181286452805494,0
4002,3.1961086879576146,0
4003,-2.681243793638535,0
4004,1.4893235789837793,0
4005,-0.8050784790383801,0
4006,0.35390383377458107,0
4007,-0.07715086746633307,0
4008,0.025446394289803168,0
4009,-0.030833736693503918,0
4010,0.040601119375246034,0
4011,-0.00041535779201999114,0
4012,0.008794746352179465,0
4013,0.00906413664930959,0
4014,0.042391318092573946,0
4015,0.02748824253302205,0
4016,-0.060084726161050775,0
4017,1.7770801879186564,0
4018,7.012863157796662,0
4019,-0.32934405730705374,0
4020,-0.8317588207808762,0
4021,0.8149819395445083,0
4022,-0.26884543497229674,0
4023,0.26534625568695513,0
4024,0.06736513592771164,0
4025,0.13546541095305986,0
4026,0.12900595328216136,0
4027,0.06621113991328677,0
4028,0.04734711673788884,0
4029,0.09219254171149552,0
4030,0.09246646721374648,0
4031,0.024882169099698717,0
4032,0.06094072245246214,0
4033,0.1476118403435461,0
4034,3.49746393398819,0
4035,6.154270025861178,0
4036,-2.784589879611213,0
4037,1.1289441167850764,0
4038,-0.334458851961372,0
4039,0.1263565002276009,0
4040,-0.10549374467705637,0
4041,-0.02646493288723589,0
4042,0.02235130384687766,0
4043,0.05160473125771349,0
4044,0.032976023531766895,0
4045,-0.0651417006445783,0
4046,0.15052335388217267,0
4047,0.12588179265699717,0
4048,0.021422479867102245,0
4049,0.048889985172747626,0
4050,0.5789827617373654,0
4051,5.779049380486786,0
4052,3.2178720560264993,0
4053,-2.743215359433259,0
4054,1.6330912178813928,0
4055,-0.7765140750188538,0
4056,0.3863999631179864,0
4057,-0.10623111674748968,0
4058,0.08224988946940545,0
4059,-0.0038007714923292257,0
4060,-0.061244464470074006,0
4061,-0.026908592177668948,0
4062,0.023278966840324836,0
4063,0.03991417058572918,0
4064,0.059054358112454075,0
4065,-0.04141879490582356,0
4066,0.05149609828976827,0
4067,1.6019385315445542,0
4068,7.0031038457345485,0
4069,-0.33659904607274815,0
4070,-0.7380672565906337,0
4071,0.7163029117475315,0
4072,-0.327069118901267,0
4073,0.28831904584562795,0
4074,-0.06801338787956676,0
4075,0.09888611503780992,0
4076,0.06594253783913859,0
4077,0.07854892349319635,0
4078,0.12368010914917127,0
4079,0.16136477198972432,0
4080,0.1267815837650931,0
4081,0.08333801082803313,0
4082,0.08046032129803027,0
4083,0.14765676410019057,0
4084,3.7271266048898797,0
4085,6.1604111408932365,0
4086,-2.744183975859625,0
4087,1.1097090814754542,0
4088,-0.44236098202446683,0
4089,0.1872581745335892,0
4090,-0.062052935477354534,0
4091,0.06731496036545011,0
4092,0.025007657491173944,0
4093,-0.013645307378306673,0
4094,0.10418476544707156,0
4095,-0.024936386984445568,0
4096,-0.0543270398922785,0
4097,-0.027733498003936895,0
4098,-0.00467370581609693,0
4099,-0.024653945231161323,0
4100,0.524643487039693,0
4101,5.657036955475027,0
4102,3.414296464080211,0
4103,-2.6253697350751706,0
4104,1.541513836494793,0
4105,-0.7313113391314725,0
4106,0.3062407616332605,0
4107,-0.020233679648218234,0
4108,0.16164872820300705,0
4109,-0.004280500231633018,0
4110,0.11823023419801644,0
4111,0.15201713128184619,0
4112,0.14128147131451213,0
4113,0.014294925311286441,0
4114,0.028213191106301175,0
4115,0.13571920229607867,0
4116,0.030640065898551307,0
4117,1.8199959550363003,0
4118,6.989521347401112,0
4119,-0.4226457724092083,0
4120,-0.7351214363327795,0
4121,0.7052355666806523,0
4122,-0.3231457881549719,0
4123,0.13464109802659108,0
4124,-0.03828210562165156,0
4125,-0.03368672356061001,0
4126,-0.015376465848397783,0
4127,-0.031028749695132363,0
4128,0.011919857945894882,0
4129,0.03347973577936436,0
4130,0.0010274390567272217,0
4131,0.08209166095287479,0
4132,0.03667154750998293,0
4133,0.17225717319204603,0
4134,3.5815185784735886,0
4135,6.116924658867441,0
4136,-2.74979073996581,0
4137,1.1619964556584843,0
4138,-0.38913956597753013,0
4139,0.12387738566365479,0
4140,0.05760732022109011,0
4141,-0.009800518188067459,0
4142,-0.006264940155756951,0
4143,-0.04667032073131863,0
4144,-0.06617283079946197,0
4145,0.02547529622832352,0
4146,0.07527353455656256,0
4147,0.026087877631348684,0
4148,-0.013275169826240978,0
4149,0.01430479805606486,0
4150,0.556352685382336,0
4151,5.6729872102053385,0
4152,3.2020773444899233,0
4153,-2.6201796495068033,0
4154,1.515155447489593,0
4155,-0.8122243072012277,0
4156,0.23598273464651942,0
4157,-0.0039047515689307477,0
4158,0.11206492423860918,0
4159,-0.0011770296925060694,0
4160,-0.03180893765337554,0
4161,-0.04159011132383764,0
4162,-0.03516575176750103,0
4163,-0.016470301764173287,0
4164,0.009725646511706296,0
4165,0.057539454251585784,0
4166,-0.009744143660601792,0
4167,1.631308747218033,0
4168,7.058532909575352,0
4169,-0.492437724672384,0
4170,-0.8478071753524987,0
4171,0.6102035562240286,0
4172,-0.34696685322149257,0
4173,0.0913027761353652,0
4174,-0.11101418968164162,0
4175,-0.019868247482926177,0
4176,-0.07971702063881463,0
4177,-0.06410790878554572,0
4178,0.0006423806782923924,0
4179,0.030560017888534616,0
4180,-0.017565578183098916,0
4181,-0.07102733153124616,0
4182,-0.01673401841012481,0
4183,0.11324371748090376,0
4184,3.6662526945280867,0
4185,6.198368812938562,0
4186,-2.7034866253192016,0
4187,1.1563449282122673,0
4188,-0.35086755594368296,0
4189,0.20314673364148972,0
4190,-0.056927465952942596,0
4191,-0.028724683500183194,0
4192,-0.030987369346185588,0
4193,0.03970563651292706,0
4194,0.0166963511042537,0
4195,-0.06114407007720475,0
4196,0.029665162255353743,0
4197,-0.06383197922884627,0
4198,-0.04905086478700629,0
4199,-0.040509710969743644,0
4200,0.5539284918615438,0
4201,5.655858178176439,0
4202,3.19379013074192,0
4203,-2.652817393758338,0
4204,1.4502412876809594,0
4205,-0.8636151125957977,0
4206,0.28729901714773937,0
4207,-0.2394944191636702,0
4208,-0.05472632362215957,0
4209,0.022193067471965786,0
4210,-0.023097787652256365,0
4211,-0.04937984966108412,0
4212,0.0391551321586489,0
4213,-0.0264269309147928,0
4214,0.05317149645286874,0
4215,0.04066556067070388,0
4216,-0.07263813900502207,0
4217,1.5810268173795055,0
4218,6.856236699414916,0
4219,-0.48837534663074894,0
4220,-0.8194685593916005,0
4221,0.6778728388170367,0
4222,-0.424319946784436,0
4223,0.1719424310059778,0
4224,-0.021252578978541797,0
4225,-0.008558410235395334,0
4226,0.03861899677046679,0
4227,-0.08346690720483062,0
4228,-0.07091932621535593,0
4229,0.0169721243857756,0
4230,-0.006730737738964485,0
4231,-0.08072591466828127,0
4232,0.03449520812748472,0
4233,0.14973472982632002,0
4234,3.7063685536341753,0
4235,6.116355595762735,0
4236,-2.789214108555144,0
4237,1.177746662879908,0
4238,-0.39598307022253343,0
4239,0.1413534860197101,0
4240,-0.016654089335755455,0
4241,0.004083096437396627,0
4242,0.05041555370429402,0
4243,0.0035447915660138346,0
4244,-0.020606329621159533,0
4245,-0.01216718930722353,0
4246,-0.028238480429141077,0
4247,-0.022155372087043983,0
4248,0.02505648349623237,0
4249,0.06230401471713641,0
4250,0.5411862164206794,0
4251,5.742168758896443,0
4252,3.2033988805858895,0
4253,-2.598639997678523,0
4254,1.437009933124534,0
4255,-0.8437729580905772,0
4256,0.32332522551828247,0
4257,-0.1355767198591793,0
4258,-0.0069733640552989045,0
4259,-0.03518021720962267,0
4260,-0.0005630811375012881,0
4261,-0.011645636620062336,0
4262,-0.11359122713634368,0
4263,-0.09035909898910781,0
4264,-0.02277587267616713,0
4265,0.01723719931011819,0
4266,-0.011637965232144512,0
4267,1.6606319568047436,0
4268,6.937339289018689,0
4269,-0.5133291685445619,0
4270,-0.813428967803374,0
4271,0.6754639439166976,0
4272,-0.4089081566146616,0
4273,0.0407504548754693,0
4274,-0.0662770629232529,0
4275,-0.04343735625117368,0
4276,-0.04543908820849122,0
4277,0.012514738444970072,0
4278,-0.026203804920612226,0
4279,-0.057955318746679765,0
4280,-0.039602282522947216,0
4281,-0.01780769110407914,0
4282,-0.012473399068001233,0
4283,0.0419006258246509,0
4284,3.6170438152706113,0
4285,6.04649382696378,0
4286,-2.894746348310921,0
4287,1.1685701338355667,0
4288,-0.4726022869566636,0
4289,0.161798497262324,0
4290,-0.17117784422330684,0
4291,-0.07047251709593247,0
4292,-0.06013727759270508,0
4293,-0.011754959099111138,0
4294,-0.05844644136178447,0
4295,-0.07499384761638042,0
4296,-0.1306790427084975,0
4297,-0.05386461199436916,0
4298,-0.08684211375578849,0
4299,-0.017096399701484764,0
4300,0.5676581629278371,0
4301,5.6464391292244525,0
4302,3.1320967093392214,0
4303,-2.648243018047088,0
4304,1.4870023187269514,0
4305,-0.8983722774384583,0
4306,0.35544942255591905,0
4307,-0.14499268735659807,0
4308,-0.06261767794684889,0
4309,-0.0750135574149643,0
4310,-0.09133205421000422,0
4311,-0.032911628519785505,0
4312,-0.04241704374294064,0
4313,-0.04217246494257558,0
4314,-0.06773021348067712,0
4315,0.07665932939328819,0
4316,-0.08340756732947795,0
4317,1.7268079084436625,0
4318,6.899027333192131,0
4319,-0.49919026365382707,0
4320,-0.7276251594984814,0
4321,0.61980827941568,0
4322,-0.31639737716559935,0
4323,0.06036438617147333,0
4324,-0.041623764556847256,0
4325,0.043387899458212004,0
4326,0.014809151813827134,0
4327,-0.07132698961801168,0
4328,-0.002820122571083307,0
4329,-0.08327024753097283,0
4330,0.02163788649212285,0
4331,-0.054633925271905574,0
4332,-0.08602912707387765,0
4333,0.08818280149293072,0
4334,3.62619560979751,0
4335,6.106119431812933,0
4336,-2.9076001856843545,0
4337,1.0726023237925093,0
4338,-0.46170794723273867,0
4339,0.13753466003419065,0
4340,-0.11357093974784763,0
4341,0.058760842476526035,0
4342,-0.020475150230544872,0
4343,0.01559216967154662,0
4344,-0.09298658088179759,0
4345,0.003396991158727568,0
4346,-0.06004298391800626,0
4347,0.02478698160727097,0
4348,-0.06811661539382015,0
4349,0.013840158788325264,0
4350,0.5729968539088115,0
4351,5.801507675812494,0
4352,3.0852717684360718,0
4353,-2.653635001059091,0
4354,1.6382909351693815,0
4355,-0.8260946008137174,0
4356,0.37644164869988217,0
4357,-0.08895547527671727,0
4358,0.07787264414938751,0
4359,-0.00678362246336304,0
4360,-0.04789899949964046,0
4361,-0.02575370905191045,0
4362,0.027838959910287765,0
4363,-0.06036363136375888,0
4364,-0.0418226193215483,0
4365,-0.0703482795777709,0
4366,-0.1467797713929202,0
4367,1.6704291629450096,0
4368,6.998592914987297,0
4369,-0.4784318172535719,0
4370,-0.8676205565534163,0
4371,0.5467004027125951,0
4372,-0.3976985780063173,0
4373,0.09884780869251263,0
4374,-0.09770636245208154,0
4375,-0.030089318191417257,0
4376,-0.07690349699334015,0
4377,-0.074325950000794,0
4378,-0.10434659856563977,0
4379,-0.0451413555387708,0
4380,0.035388469003805406,0
4381,-0.07213541993696256,0
4382,0.06445109092219928,0
4383,0.08098785924808992,0
4384,3.678534054907142,0
4385,6.033947111545546,0
4386,-2.843540899289154,0
4387,1.2106213836769908,0
4388,-0.3433487729925413,0
4389,0.1350659187148935,0
4390,-0.03335213858908069,0
4391,0.07826484068900649,0
4392,-0.029859364927051036,0
4393,0.04646698569540142,0
4394,-0.11015395788256604,0
4395,0.045198186943306566,0
4396,0.00617344696507257,0
4397,-0.01700707144177046,0
4398,-0.08553862628767342,0
4399,0.007209180349134037,0
4400,0.4293737373670324,0
4401,5.680555050595094,0
4402,2.9813767272446023,0
4403,-2.7928427137959546,0
4404,1.3725924555793703,0
4405,-0.9934414112865736,0
4406,0.1842346142459937,0
4407,-0.1331780098902244,0
4408,-0.024151501582836674,0
4409,-0.0977894960402641,0
4410,-0.04552192547554003,0
4411,-0.06848751757986656,0
4412,-0.060159074336656654,0
4413,-0.05928390395571534,0
4414,-0.01445116650253975,0
4415,-0.028841077653858856,0
4416,-0.03956846904256513,0
4417,1.776331815243837,0
4418,6.941710699645813,0
4419,-0.48197379902168974,0
4420,-0.7140562325834183,0
4421,0.7596384420956881,0
4422,-0.39307849180635357,0
4423,0.21661991608378553,0
4424,-0.056079409327042334,0
4425,0.06432358572310609,0
4426,0.09686761337117826,0
4427,0.04831439563106479,0
4428,0.08064033214794028,0
4429,0.02433935404909473,0
4430,-0.04605824038372954,0
4431,0.016584485610901905,0
4432,-0.04647452338653247,0
4433,0.04493307637384253,0
4434,3.6380642455295824,0
4435,5.979220704346986,0
4436,-2.939270310633172,0
4437,1.1731357003119918,0
4438,-0.43636783235896565,0
4439,0.1567195528487977,0
4440,-0.07827193819074157,0
4441,0.03187919841001227,0
4442,-0.09204477712318006,0
4443,-0.003779104804569052,0
4444,-0.11360394175356657,0
4445,0.039589235618455905,0
4446,0.05806750780585164,0
4447,-0.0056656651873578795,0
4448,-0.0746899267689437,0
4449,0.00906167774519663,0
4450,0.5725294226042202,0
4451,5.759502150135097,0
4452,3.108131618617692,0
