timestamp,value-0,is_anomaly
0,0.2563232726450569,0.0
1,4.639143138523123,0.0
2,4.922587493226868,0.0
3,-3.097878835714397,0.0
4,1.521571584187664,0.0
5,-0.6553498107012378,0.0
6,0.2598963618730157,0.0
7,-0.1764984526114714,0.0
8,0.17644009625301432,0.0
9,0.09841385524575272,0.0
10,0.11538314551738224,0.0
11,0.05203043377765504,0.0
12,0.05113988143215683,0.0
13,0.010030783890150734,0.0
14,0.08191541901927474,0.0
15,-0.003191435558019557,0.0
16,0.04955439803318796,0.0
17,0.9040704669543198,0.0
18,6.413883999363938,0.0
19,1.5788316425334907,0.0
20,-1.990389223706614,0.0
21,1.2656726852200493,0.0
22,-0.6222713813816092,0.0
23,0.2664026930613802,0.0
24,-0.023124188739029466,0.0
25,0.010552963981895633,0.0
26,0.03493387612931316,0.0
27,-0.015153247155752777,0.0
28,0.030285905475914466,0.0
29,0.09112765142703179,0.0
30,0.061806723421076716,0.0
31,-0.034642690083995516,0.0
32,0.08671449584304233,0.0
33,0.09402972939291529,0.0
34,2.5283521760750247,0.0
35,6.963851669177499,0.0
36,-1.784873523976844,0.0
37,0.14856726880058843,0.0
38,0.1020306926094861,0.0
39,-0.10915988515376264,0.0
40,0.07580035883556557,0.0
41,0.06547148436286725,0.0
42,-0.07697124567832223,0.0
43,0.03724470041462669,0.0
44,0.14034951565261633,0.0
45,-0.05487072133846507,0.0
46,0.064348352377925,0.0
47,-0.12697540928119555,0.0
48,-0.11825017673538403,0.0
49,0.011046529859456616,0.0
50,0.23833957129171393,0.0
51,4.610232361505349,0.0
52,4.92997201628857,0.0
53,-3.0830203888059837,0.0
54,1.4971075174468496,0.0
55,-0.7441692642364248,0.0
56,0.24433316897500534,0.0
57,-0.10669661441360327,0.0
58,0.11394486491423506,0.0
59,-0.008524127539905516,0.0
60,-0.035329525469771174,0.0
61,-0.0343945911513285,0.0
62,0.010255724076992094,0.0
63,-0.07749210670506254,0.0
64,-0.005034365916454009,0.0
65,0.00870011055863723,0.0
66,-0.10519966227971272,0.0
67,0.9702169344693676,0.0
68,6.3738342137517625,0.0
69,1.6439676951914286,0.0
70,-2.117274311740522,0.0
71,1.1463801362589685,0.0
72,-0.6941945965857866,0.0
73,0.23179633727986157,0.0
74,-0.10628689243434991,0.0
75,-0.0241418368728789,0.0
76,-0.020967235245969315,0.0
77,-0.09156762126448201,0.0
78,-0.06906015011786903,0.0
79,-0.05197117705214793,0.0
80,-0.023987925418117,0.0
81,-0.0838615781032517,0.0
82,-0.04359366492377954,0.0
83,-0.04344770322917245,0.0
84,2.541225166172861,0.0
85,6.864902888660975,0.0
86,-1.8048087414041365,0.0
87,0.19638096729048266,0.0
88,0.001973843336714992,0.0
89,-0.13489553815901342,0.0
90,0.00011080977245627593,0.0
91,-0.025068301518828762,0.0
92,-0.07436575220848736,0.0
93,0.016726889734946578,0.0
94,-0.0009435022225768343,0.0
95,-0.08034250416898767,0.0
96,-0.001941653801234608,0.0
97,0.04897349145390292,0.0
98,-0.0651185388752131,0.0
99,-0.03278493150151455,0.0
100,0.19738161162906293,0.0
101,4.590046142155496,0.0
102,4.948992678510167,0.0
103,-3.0340632270606505,0.0
104,1.4642174967291066,0.0
105,-0.726227277279826,0.0
106,0.16679270704938476,0.0
107,-0.18438290216424294,0.0
108,-0.04657275326374935,0.0
109,-0.12580178175216278,0.0
110,-0.09304553862446234,0.0
111,-0.17868140814020167,0.0
112,-0.21099620552882525,0.0
113,-0.18431219710807842,0.0
114,-0.07420817651018206,0.0
115,-0.002505459745425015,0.0
116,-0.05907074068522534,0.0
117,0.9900878922305093,0.0
118,6.449020421300771,0.0
119,1.5300737093372618,0.0
120,-1.9593333856544928,0.0
121,1.1792368502476427,0.0
122,-0.6500753210872506,0.0
123,0.23158077404862973,0.0
124,-0.07972956477068718,0.0
125,-0.026311663493132798,0.0
126,-0.1292093564181224,0.0
127,0.03860565848982882,0.0
128,-0.06911134729744192,0.0
129,-0.014205186563183416,0.0
130,-0.027994297592166758,0.0
131,-0.017693848547172798,0.0
132,0.009991750271934257,0.0
133,0.11622977673182978,0.0
134,2.509501010190085,0.0
135,6.843125077756133,0.0
136,-1.8808547713603345,0.0
137,0.18065810255940185,0.0
138,0.07277754238938199,0.0
139,-0.1904064671325126,0.0
140,-0.022516669059919538,0.0
141,-0.04099235564362697,0.0
142,-0.02482179572596136,0.0
143,-0.08234115752363114,0.0
144,-0.004872431750932653,0.0
145,-0.020525842030792593,0.0
146,-0.10430098423105184,0.0
147,0.011999484008563224,0.0
148,-0.06537141415358669,0.0
149,-0.005777836636423783,0.0
150,0.22399893109759228,0.0
151,4.686124910912863,0.0
152,4.983622304781416,0.0
153,-3.0268069241517987,0.0
154,1.574230259684004,0.0
155,-0.7256290788843349,0.0
156,0.25900734173011036,0.0
157,-0.08878694757483602,0.0
158,-0.031470216552254016,0.0
159,-0.0034643743159247647,0.0
160,0.12483993451459051,0.0
161,-0.051904897261290384,0.0
162,0.00977578997798699,0.0
163,-0.05703814048553089,0.0
164,-0.004297328780061744,0.0
165,0.07915139694144349,0.0
166,0.07832719363601867,0.0
167,0.940762266381683,0.0
168,6.496386840253511,0.0
169,1.4132863426143103,0.0
170,-2.0500802701897722,0.0
171,1.1427173853447594,0.0
172,-0.6779975953321994,0.0
173,0.31582999113887783,0.0
174,-0.12264455065310689,0.0
175,0.08713890567972543,0.0
176,-0.01642162001131988,0.0
177,0.06193653990502448,0.0
178,-0.036149502507562964,0.0
179,-0.026679466130540834,0.0
180,0.04986555103068202,0.0
181,-0.026256315138961695,0.0
182,0.009744804712751003,0.0
183,0.11809887660033255,0.0
184,2.532631053990709,0.0
185,6.885702397748296,0.0
186,-1.8367101694694885,0.0
187,0.2352151541848092,0.0
188,0.03423440380467402,0.0
189,-0.06657044289406387,0.0
190,-0.02348897682756551,0.0
191,-0.004615734546434963,0.0
192,-0.023351256279635163,0.0
193,-0.06342518182560414,0.0
194,0.027965693562315937,0.0
195,-3.417140145980241e-05,0.0
196,-0.07425486343237729,0.0
197,0.051505325039385444,0.0
198,-0.08910137674973469,0.0
199,0.04245138570142018,0.0
200,0.23865523603607203,0.0
201,4.687265541920718,0.0
202,4.90989477867282,0.0
203,-2.9841320627101457,0.0
204,1.5257249925983807,0.0
205,-0.7118790857706603,0.0
206,0.2525472624763936,0.0
207,-0.0938972629504542,0.0
208,0.004112699308575142,0.0
209,-0.004143290214052912,0.0
210,-0.08625801539220501,0.0
211,-0.05395654124470385,0.0
212,-0.09353319469109654,0.0
213,0.026929894406131947,0.0
214,-0.050748976468754606,0.0
215,-0.08092266648732871,0.0
216,-0.022719998399238567,0.0
217,1.0240150850074121,0.0
218,6.468416626039853,0.0
219,1.5057981413102066,0.0
220,-1.9539641026833567,0.0
221,1.258871069450679,0.0
222,-0.6457537985778726,0.0
223,0.2809205265050227,0.0
224,-0.08857126901258294,0.0
225,0.011564617307511963,0.0
226,0.02209236675865148,0.0
227,-0.0301773329944118,0.0
228,0.06748331755466984,0.0
229,0.042957562165274944,0.0
230,0.0809648284598424,0.0
231,0.06580049138996275,0.0
232,0.05813442322263941,0.0
233,-0.025820290402292556,0.0
234,2.6342268381598997,0.0
235,6.856715293081358,0.0
236,-1.8517353858087329,0.0
237,0.30429931702421775,0.0
238,0.1976761812629491,0.0
239,-0.09103946904871311,0.0
240,0.03362955993573586,0.0
241,0.03795023532418175,0.0
242,0.04138206302226231,0.0
243,-0.012968261090570397,0.0
244,0.023588700798640047,0.0
245,0.01602272491029653,0.0
246,0.023611419675942845,0.0
247,-0.027099773829499765,0.0
248,0.10860623877335843,0.0
249,0.12288659685531808,0.0
250,0.22842625087347307,0.0
251,4.672315312561046,0.0
252,4.823774018493007,0.0
253,-2.9247251485062478,0.0
254,1.5703749784190473,0.0
255,-0.655210669634305,0.0
256,0.3799245950294331,0.0
257,-0.09954518387049033,0.0
258,0.07001780109908547,0.0
259,0.04363354844358129,0.0
260,0.060425385575650525,0.0
261,0.049156200417432634,0.0
262,0.1273909176383676,0.0
263,0.08077996492779897,0.0
264,-0.007098061053674984,0.0
265,0.060167501989979506,0.0
266,0.07945808826487194,0.0
267,1.1107935843046364,0.0
268,6.595041544876778,0.0
269,1.5079769395217564,0.0
270,-1.8331781279953605,0.0
271,1.2333441568867174,0.0
272,-0.6638801051770352,0.0
273,0.3382093863269745,0.0
274,-0.02618577942479946,0.0
275,-0.017744373670976553,0.0
276,-0.04241059423798589,0.0
277,0.07800276566392299,0.0
278,-0.005496711830980543,0.0
279,0.05877965990653768,0.0
280,-0.007338547232543617,0.0
281,0.005170696863907025,0.0
282,0.08498231588167784,0.0
283,0.07095814773308631,0.0
284,2.598572306065064,0.0
285,7.024928456594697,0.0
286,-1.7236820868771667,0.0
287,0.4231211443099999,0.0
288,0.2784833608097153,0.0
289,-0.03947232728265815,0.0
290,0.11003839566791523,0.0
291,0.1302710049214554,0.0
292,0.11303276252843043,0.0
293,0.0631941721519003,0.0
294,0.16073954190120077,0.0
295,0.15027121310325803,0.0
296,0.05413671340918572,0.0
297,0.14344945499403022,0.0
298,0.13369999624926937,0.0
299,0.06525823178773713,0.0
300,0.31904416429172977,0.0
301,4.677066310648598,0.0
302,4.9177478177279434,0.0
303,-2.956871638727409,0.0
304,1.5956993993842696,0.0
305,-0.6343119839162454,0.0
306,0.315381596977381,0.0
307,-0.004807564061349412,0.0
308,0.07251725907814369,0.0
309,-0.07297679054474672,0.0
310,-0.041005062205562784,0.0
311,0.009388955496560858,0.0
312,-0.039921140706596143,0.0
313,0.03355058861994638,0.0
314,-0.027447786519250415,0.0
315,-0.04046141400345619,0.0
316,-0.06387782085481815,0.0
317,1.0808655970415055,0.0
318,6.54203905273467,0.0
319,1.391368612270763,0.0
320,-1.816041996314167,0.0
321,1.3204248796091784,0.0
322,-0.6418696356177189,0.0
323,0.2963077987123856,0.0
324,0.018776223562333515,0.0
325,0.14437968606852078,0.0
326,0.08743587535344809,0.0
327,0.12601618152228938,0.0
328,0.08677345874052826,0.0
329,0.12794232302777409,0.0
330,0.07524377873750404,0.0
331,0.035031668642625524,0.0
332,0.08974209908406505,0.0
333,0.107601654412694,0.0
334,2.6256377528127377,0.0
335,6.926431842314024,0.0
336,-1.7702545923048336,0.0
337,0.24475938967643507,0.0
338,0.16828995163231703,0.0
339,0.04046234607587522,0.0
340,0.08859862608603958,0.0
341,0.12764147256616112,0.0
342,0.05714555042138067,0.0
343,-0.023670342402933253,0.0
344,0.14049519761652593,0.0
345,0.11887666978915137,0.0
346,0.0764380201980216,0.0
347,0.19584259008440957,0.0
348,0.05012108313156659,0.0
349,0.0725767567307902,0.0
350,0.39653639863109463,0.0
351,4.654496378187861,0.0
352,4.960423879683026,0.0
353,-2.9439728840245705,0.0
354,1.679849717215878,0.0
355,-0.6496476228142363,0.0
356,0.2992285654545986,0.0
357,-0.015784466232956658,0.0
358,0.12736739505139774,0.0
359,0.032336064782778305,0.0
360,0.08601319579184027,0.0
361,-0.03774555028858957,0.0
362,0.11795957155003975,0.0
363,0.16059283020155427,0.0
364,0.08158894017467129,0.0
365,0.013901332652490946,0.0
366,0.04455251779499968,0.0
367,1.1161284302860208,0.0
368,6.513360382205653,0.0
369,1.397584962272983,0.0
370,-1.8617710671287582,0.0
371,1.2124265719804845,0.0
372,-0.6657405756537474,0.0
373,0.2823933142664267,0.0
374,-0.010169497200649913,0.0
375,0.015323035818014608,0.0
376,0.008728126811018234,0.0
377,0.027527518997665076,0.0
378,0.023799754320337468,0.0
379,0.06191777172602043,0.0
380,0.07678675084986457,0.0
381,-0.0901845821551051,0.0
382,0.0794559288100657,0.0
383,0.04501575007887319,0.0
384,2.5381828251803684,0.0
385,6.891570429948434,0.0
386,-1.8486524338361665,0.0
387,0.34682242049156636,0.0
388,0.050195692657698174,0.0
389,-0.1343953397074567,0.0
390,0.12928404236466967,0.0
391,0.019818351419075005,0.0
392,0.016555066082146942,0.0
393,0.06942921766183713,0.0
394,0.0658050929903111,0.0
395,-0.05051155004592516,0.0
396,0.05088144350425421,0.0
397,-0.006367775167258341,0.0
398,-0.06715615615476317,0.0
399,-0.057221186328739515,0.0
400,0.2332701403413529,0.0
401,4.561135279180378,0.0
402,4.849591417141203,0.0
403,-2.9740197516664715,0.0
404,1.5591470214946404,0.0
405,-0.721257246689568,0.0
406,0.3012818505608603,0.0
407,-0.05735831825013535,0.0
408,0.04790260564942818,0.0
409,0.04026896038178719,0.0
410,0.0125461821251995,0.0
411,-0.055335697071609576,0.0
412,-0.02015827969225587,0.0
413,-0.07081764837012942,0.0
414,0.005918747673902746,0.0
415,0.0329486643533455,0.0
416,0.000674018518539956,0.0
417,1.0312408885683206,0.0
418,6.587082022030436,0.0
419,1.4001781566412685,0.0
420,-1.8075483473256324,0.0
421,1.1819982381634175,0.0
422,-0.5937863275792636,0.0
423,0.2236905434267296,0.0
424,-0.10378171774221523,0.0
425,0.03664608379024921,0.0
426,0.004771195373626599,0.0
427,-0.053774981964386966,0.0
428,0.1207038992884345,0.0
429,0.13305046340572077,0.0
430,0.024023035300087016,0.0
431,-0.03249591515674044,0.0
432,0.026955568670795876,0.0
433,-0.004290096645960875,0.0
434,2.557741243062317,0.0
435,6.941560226230595,0.0
436,-1.9182332150228467,0.0
437,0.3007943799670266,0.0
438,0.17198367838531647,0.0
439,-0.032060461341711255,0.0
440,0.08624780396684067,0.0
441,-0.018236436252402476,0.0
442,-0.037450147250850066,0.0
443,0.003957727245277417,0.0
444,-0.05563977896509704,0.0
445,0.05226330431477884,0.0
446,-0.06102152207998318,0.0
447,0.029053805068497415,0.0
448,-0.0741114738650622,0.0
449,0.05983182012061386,0.0
450,0.2910520880480897,0.0
451,4.6037011357371735,0.0
452,4.820027187220781,0.0
453,-2.9819594349261553,0.0
454,1.5515951356388775,0.0
455,-0.7443756293923715,0.0
456,0.40337777368361444,0.0
457,-0.09690619967534853,0.0
458,0.1254705715378395,0.0
459,-0.00847613727874804,0.0
460,-0.037998069969682566,0.0
461,-0.008923434506799395,0.0
462,0.007947285324776312,0.0
463,0.03792474291599207,0.0
464,-0.004615791319739208,0.0
465,0.009044022758959281,0.0
466,0.04800631396777552,0.0
467,1.0145682797745015,0.0
468,6.576034494013601,0.0
469,1.3352311437501418,0.0
470,-1.8661736802509918,0.0
471,1.1169013580075047,0.0
472,-0.6525810551059121,0.0
473,0.1467943225450063,0.0
474,-0.10127620190295049,0.0
475,0.05964932018886559,0.0
476,0.04296433044014652,0.0
477,-0.03178975907399005,0.0
478,0.12975747910581656,0.0
479,0.08024437539548658,0.0
480,0.06005868814417214,0.0
481,-0.06114337468165479,0.0
482,0.036033567425566945,0.0
483,0.0635317220051759,0.0
484,2.666107133596816,0.0
485,6.864498335808692,0.0
486,-1.948186806595645,0.0
487,0.4461366338071153,0.0
488,0.06021205630856309,0.0
489,0.023385365319849825,0.0
490,0.0932569216438406,0.0
491,-0.0028015008747198783,0.0
492,0.13792192981035364,0.0
493,0.10531648527170044,0.0
494,0.027251668702897136,0.0
495,0.008358862329291894,0.0
496,-0.05444648167277637,0.0
497,0.09599530086100198,0.0
498,0.006189842662091933,0.0
499,-0.0673480132021982,0.0
500,0.3281809847230972,0.0
501,4.657810535332899,0.0
502,4.829602066255931,0.0
503,-3.075242664387458,0.0
504,1.633599449277568,0.0
505,-0.678965905182292,0.0
506,0.32945388733839626,0.0
507,0.018208904096748246,0.0
508,0.032367862440091155,0.0
509,0.023620792437266152,0.0
510,0.024400301964506207,0.0
511,0.11425606679165107,0.0
512,-0.02543758112772454,0.0
513,0.08956971361653383,0.0
514,0.03892496510829768,0.0
515,-0.057946087950965494,0.0
516,-0.021657462549044652,0.0
517,1.022664071929449,0.0
518,6.512945219552847,0.0
519,1.3353545663990432,0.0
520,-1.8721064974419357,0.0
521,1.1820916775965877,0.0
522,-0.6113671465846036,0.0
523,0.2246049088519855,0.0
524,-0.13574456454193684,0.0
525,0.01558631147456169,0.0
526,-0.08559570257834634,0.0
527,0.014117922227366094,0.0
528,0.03996844797600354,0.0
529,0.00769652322263684,0.0
530,0.036500078248808625,0.0
531,0.12089578916536156,0.0
532,0.14647431540831646,0.0
533,0.04214652488110161,0.0
534,2.6032154305097976,0.0
535,6.744121829641593,0.0
536,-1.9291381464164967,0.0
537,0.2667228272181307,0.0
538,0.014727378912753636,0.0
539,-0.037659248036753794,0.0
540,0.060210707223046965,0.0
541,-0.0026806643920924762,0.0
542,0.1250784149430522,0.0
543,-0.008464658725003356,0.0
544,-0.05864665928022235,0.0
545,0.009128608921603453,0.0
546,-0.030906571514063,0.0
547,0.08724327949465849,0.0
548,0.1412139429564235,0.0
549,-0.04681109601559395,0.0
550,0.37759878472488906,0.0
551,4.759052339806811,0.0
552,4.8152042741244685,0.0
553,-3.0354801529558997,0.0
554,1.5946372831160258,0.0
555,-0.791986032584395,0.0
556,0.32451289210363266,0.0
557,0.025360021230005608,0.0
558,0.07565670911334633,0.0
559,0.05872535745572485,0.0
560,-0.003691447308587831,0.0
561,-0.03923749174246246,0.0
562,0.020453231211811772,0.0
563,0.06522144387258212,0.0
564,0.026201167116051208,0.0
565,-0.018549244375521197,0.0
566,0.0026750669172881927,0.0
567,1.1101472300823143,0.0
568,6.494632066299052,0.0
569,1.292325863841108,0.0
570,-1.8100382281251954,0.0
571,1.151838573361851,0.0
572,-0.537851275005124,0.0
573,0.2489329118681122,0.0
574,-0.16410289537031797,0.0
575,-0.012287528427895572,0.0
576,0.07144565192856281,0.0
577,0.054577494071819804,0.0
578,0.03034142179815899,0.0
579,-0.03184783773239821,0.0
580,-0.11103881468542051,0.0
581,-0.00045206620577586953,0.0
582,0.05044845737825708,0.0
583,0.03615726491891749,0.0
584,2.532961505185039,0.0
585,6.896847960101598,0.0
586,-2.034268253629591,0.0
587,0.22329044817058008,0.0
588,0.05024961526757986,0.0
589,-0.04256167178904865,0.0
590,0.04181119170687278,0.0
591,-0.013682333473389981,0.0
592,0.011505173382361747,0.0
593,0.021550071485899422,0.0
594,-0.008842469905615352,0.0
595,0.014441484091466195,0.0
596,0.023435488457513073,0.0
597,0.031170085726740383,0.0
598,0.009182026621737399,0.0
599,0.0738880945938692,0.0
600,0.26668454248318907,0.0
601,4.82136977616633,0.0
602,4.783242897351775,0.0
603,-2.992127734695269,0.0
604,1.5312104584162722,0.0
605,-0.7716782615603069,0.0
606,0.2968927134448536,0.0
607,-0.004684145503386972,0.0
608,0.09868373523934124,0.0
609,0.0901939565282317,0.0
610,0.11338157822811828,0.0
611,0.06221109543639651,0.0
612,0.09675746883691885,0.0
613,0.011833034457114158,0.0
614,0.04615044295671682,0.0
615,0.023221051692874264,0.0
616,-0.020533479975146443,0.0
617,1.160352507476748,0.0
618,6.647538364262259,0.0
619,1.3341053556948181,0.0
620,-1.7194323335083106,0.0
621,1.2525324489410474,0.0
622,-0.5005739249181921,0.0
623,0.4182311089045715,0.0
624,-0.014501441839311312,0.0
625,0.049393286063735636,0.0
626,0.021811572346325213,0.0
627,-0.013481814379411323,0.0
628,-0.034725523255160935,0.0
629,-0.08844663250424248,0.0
630,-0.11800949357799662,0.0
631,-0.03714690197692132,0.0
632,-0.0919212346309933,0.0
633,-0.03270512184579664,0.0
634,2.633129091202329,0.0
635,6.686108078124448,0.0
636,-2.047578671713407,0.0
637,0.27711957476380983,0.0
638,-0.030825771036620347,0.0
639,-0.14638944210871738,0.0
640,-0.03767231750042641,0.0
641,-0.0013931433085344266,0.0
642,0.05148435132161253,0.0
643,-0.015010444383427744,0.0
644,-0.0016812062199241008,0.0
645,0.022924149903754087,0.0
646,0.09981260494119251,0.0
647,0.048082977232027,0.0
648,-0.006678338788812882,0.0
649,-0.08466440007668635,0.0
650,0.32116197314733286,0.0
651,4.774340282094981,0.0
652,4.596826894727349,0.0
653,-3.0062708133635194,0.0
654,1.5479865331579234,0.0
655,-0.8282017709824354,0.0
656,0.31153602924310553,0.0
657,-0.10006570078632851,0.0
658,0.03254488138432794,0.0
659,-0.036456674774085554,0.0
660,0.017934962377309318,0.0
661,-0.011817501071446298,0.0
662,-0.10460351694242852,0.0
663,-0.03276773858793305,0.0
664,0.02133229021317574,0.0
665,0.090336310431234,0.0
666,0.012628927371744128,0.0
667,1.0015435846803749,0.0
668,6.526475089986001,0.0
669,1.2815625801734,0.0
670,-1.8131375869272501,0.0
671,1.1399127214342684,0.0
672,-0.6351336801902543,0.0
673,0.315969830517109,0.0
674,-0.1232597035917995,0.0
675,0.07984780299469112,0.0
676,0.008957691104300919,0.0
677,-0.02454746724604187,0.0
678,0.02669741678086986,0.0
679,-0.07397455643584236,0.0
680,-0.025953219869327606,0.0
681,-0.03938956678123788,0.0
682,-0.039891688380151384,0.0
683,0.008456476515065344,0.0
684,2.737414137737779,0.0
685,6.75968874286136,0.0
686,-2.0165004405222384,0.0
687,0.35926054697865883,0.0
688,0.015088269862882628,0.0
689,-0.029532705771645726,0.0
690,0.0029774882852613696,0.0
691,-0.06801891739145526,0.0
692,-0.03335214297750292,0.0
693,0.0012579475409154129,0.0
694,-0.018568157861725398,0.0
695,0.059210218096684114,0.0
696,0.06724035282799348,0.0
697,-0.000400818917804871,0.0
698,-0.0036537573043894265,0.0
699,-0.04001710165483731,0.0
700,0.24096554226859762,0.0
701,4.778095408021939,0.0
702,4.771265200889421,0.0
703,-2.9927632935364232,0.0
704,1.4714836286084652,0.0
705,-0.7827024876457945,0.0
706,0.2432355334109515,0.0
707,-0.1550813509801861,0.0
708,0.0878132035407183,0.0
709,0.08041377202855576,0.0
710,0.009311525493341032,0.0
711,-0.07769471685217322,0.0
712,0.03506798913904456,0.0
713,-0.03129359725744729,0.0
714,-0.041723011988244484,0.0
715,0.017659561179627244,0.0
716,0.012243855534292386,0.0
717,1.1744627740553766,0.0
718,6.66185007091714,0.0
719,1.2414174385171357,0.0
720,-1.7177898803350482,0.0
721,1.2111937042684513,0.0
722,-0.5403076674055232,0.0
723,0.25466236308412926,0.0
724,0.005268811726056866,0.0
725,0.16067383810635177,0.0
726,0.021461702648467487,0.0
727,0.011168685565903905,0.0
728,-0.048491399821816016,0.0
729,0.04606497152969788,0.0
730,-0.14033746277975206,0.0
731,-0.12249267009247078,0.0
732,0.03184381067440058,0.0
733,0.02632482658301406,0.0
734,2.5961798301489134,0.0
735,6.8284778272351865,0.0
736,-2.025553981370122,0.0
737,0.36263123184357504,0.0
738,0.030128913607623625,0.0
739,0.016834461644449905,0.0
740,0.042641671114204055,0.0
741,0.037984271036923034,0.0
742,0.15376152880966604,0.0
743,0.1588349096060036,0.0
744,0.039967497900040574,0.0
745,0.05563748781303231,0.0
746,-0.01693068269523222,0.0
747,0.08840149346935591,0.0
748,0.08710488202622875,0.0
749,0.05651085049629774,0.0
750,0.2974885441237118,0.0
751,4.788680510767854,0.0
752,4.666452351710498,0.0
753,-3.067675434996937,0.0
754,1.624918226989549,0.0
755,-0.6812720769249607,0.0
756,0.35771978115864056,0.0
757,-0.13263381992554302,0.0
758,-0.012905555663326566,0.0
759,0.0109006126174549,0.0
760,-0.012918946840278908,0.0
761,-0.022733099056387294,0.0
762,0.17535584468526394,0.0
763,0.053228602896656894,0.0
764,-0.041039160596731544,0.0
765,0.044788276437624105,0.0
766,0.11587634363282565,0.0
767,1.0688396628294037,0.0
768,6.59447632645715,0.0
769,1.2208120994538283,0.0
770,-1.7809978652924094,0.0
771,1.1830754528650331,0.0
772,-0.5140126179789251,0.0
773,0.3058032382794177,0.0
774,-0.0055424955831082055,0.0
775,0.07191852888267276,0.0
776,0.07230698675487782,0.0
777,0.02236482253189913,0.0
778,0.03147975446673361,0.0
779,-0.015975806220531734,0.0
780,-0.007932543438379451,0.0
781,-0.003894642441972518,0.0
782,0.069700130240934,0.0
783,0.10447749194794129,0.0
784,2.726445195111642,0.0
785,6.846965458044427,0.0
786,-1.8528667355426522,0.0
787,0.34064605267184206,0.0
788,0.07021607223742148,0.0
789,0.01996263746051699,0.0
790,0.12246156634495572,0.0
791,0.016902284561704513,0.0
792,0.03704091813477839,0.0
793,0.013736702586048241,0.0
794,0.007048157888482343,0.0
795,-0.03626171061226478,0.0
796,0.08218784437524587,0.0
797,0.10841808813626125,0.0
798,0.07591385641971204,0.0
799,0.032923880639755675,0.0
800,0.27756985662940625,0.0
801,4.847462128180861,0.0
802,4.735554528339309,0.0
803,-2.9408359345368966,0.0
804,1.6028231735405516,0.0
805,-0.5205914922954118,0.0
806,0.3113188724353343,0.0
807,-0.038519436134931494,0.0
808,0.09565332424665032,0.0
809,0.002800760593327102,0.0
810,0.09606606529216648,0.0
811,-0.005294758454167173,0.0
812,0.10223114359482298,0.0
813,0.15065607664266256,0.0
814,0.0742955782154272,0.0
815,0.11616155145010862,0.0
816,-0.002588072115323567,0.0
817,1.1213571845856707,0.0
818,6.706854511418224,0.0
819,1.152331140890366,0.0
820,-1.6888734366357843,0.0
821,1.2642969400665363,0.0
822,-0.5558051440163353,0.0
823,0.25485747013190674,0.0
824,-0.02599942165582895,0.0
825,0.11551991053414067,0.0
826,-0.11058682095653594,0.0
827,-0.022023696468521196,0.0
828,0.10790791834834604,0.0
829,-0.007792674164636616,0.0
830,0.1128248493615312,0.0
831,-0.012017369396059699,0.0
832,0.03807234049875645,0.0
833,0.023080297481702837,0.0
834,2.7348319689496283,0.0
835,6.817764452246899,0.0
836,-1.8640776448167715,0.0
837,0.4282876978691206,0.0
838,0.008726863908055951,0.0
839,0.004733508438323739,0.0
840,0.039401456657236794,0.0
841,-0.024365134859606667,0.0
842,0.10704868036272795,0.0
843,-0.0864044520007275,0.0
844,0.06965285990441272,0.0
845,0.009723325093026439,0.0
846,0.07034243110796773,0.0
847,0.11626181898374885,0.0
848,0.07567647239601681,0.0
849,0.03433667871932416,0.0
850,0.37694477837787876,0.0
851,4.867294526520002,0.0
852,4.710060337278957,0.0
853,-2.9556676140390508,0.0
854,1.63773734125857,0.0
855,-0.7456738894686163,0.0
856,0.38857882161898155,0.0
857,-0.04353823649565788,0.0
858,0.0020087144662620376,0.0
859,0.03423370884746471,0.0
860,0.041868648204084015,0.0
861,0.05509017695939877,0.0
862,0.01970685441354206,0.0
863,0.03859403837489802,0.0
864,0.027737935178810375,0.0
865,0.06820091625819547,0.0
866,0.03535011578222025,0.0
867,1.1984334542657205,0.0
868,6.589981296029788,0.0
869,1.241676066736887,0.0
870,-1.6679427805943554,0.0
871,1.2294227365254633,0.0
872,-0.6338042655239895,0.0
873,0.3491656383425626,0.0
874,-0.05911247166956516,0.0
875,0.08846568189232584,0.0
876,0.048785245692289925,0.0
877,0.03186099059394744,0.0
878,0.03015202850650424,0.0
879,-0.05828224469766533,0.0
880,0.03888085460362861,0.0
881,-0.017539310443260146,0.0
882,0.0007600582922002354,0.0
883,0.10814493815410312,0.0
884,2.7102626527574087,0.0
885,6.801741290967099,0.0
886,-2.0927140113659726,0.0
887,0.48289282229360203,0.0
888,-0.018024399089172374,0.0
889,-0.054731380851846624,0.0
890,-0.10271229148958637,0.0
891,0.05206576748782511,0.0
892,-0.029079458894866846,0.0
893,0.022542578524264285,0.0
894,-0.031908509994852334,0.0
895,0.004551931481139986,0.0
896,0.014739896046994752,0.0
897,0.08932884385115054,0.0
898,0.0064381018571839956,0.0
899,-0.08288063607520449,0.0
900,0.3075407705618939,0.0
901,4.8341079279989065,0.0
902,4.602984398853389,0.0
903,-2.988086125469484,0.0
904,1.6069592969616049,0.0
905,-0.779505241732158,0.0
906,0.2649672705004437,0.0
907,-0.10956931236042448,0.0
908,0.09648200423177697,0.0
909,-0.10708240056496512,0.0
910,-0.08235050040643616,0.0
911,0.02664051143264732,0.0
912,-0.046202285193779086,0.0
913,-0.07695156207220408,0.0
914,0.012717248627325175,0.0
915,0.016644785044284485,0.0
916,0.07985013753429555,0.0
917,1.1632481374782149,0.0
918,6.668242952128896,0.0
919,1.1726311078577325,0.0
920,-1.7302768883349093,0.0
921,1.1519475339375853,0.0
922,-0.6008467270451352,0.0
923,0.3231900744783794,0.0
924,-0.1410030526290392,0.0
925,0.052151834971844314,0.0
926,0.025103800832776173,0.0
927,0.049493942911636314,0.0
928,0.02113987620035994,0.0
929,-0.11182309360122122,0.0
930,-0.14834369880184295,0.0
931,-0.10519635066614533,0.0
932,-0.04752461340332714,0.0
933,-0.07846393055309762,0.0
934,2.700223124834338,0.0
935,6.7267486197610715,0.0
936,-2.1623187404148605,0.0
937,0.46774785783486084,0.0
938,0.011289894159766303,0.0
939,-0.05737980567114695,0.0
940,-0.10580426910545776,0.0
941,-0.020537168300499703,0.0
942,-0.07680702990992877,0.0
943,0.08986822270841996,0.0
944,-0.06274631815223075,0.0
945,0.035516316479010546,0.0
946,0.04811404690038759,0.0
947,-0.019828610189912665,0.0
948,0.044513653960768965,0.0
949,-0.012603736535249939,0.0
950,0.26380735862750637,0.0
951,4.834388013024865,0.0
952,4.54890105197474,0.0
953,-3.0811630317517094,0.0
954,1.5252435282746397,0.0
955,-0.7779647614336628,0.0
956,0.29199273642256096,0.0
957,-0.18563930679166749,0.0
958,-0.02819645657115942,0.0
959,-0.057446461040322146,0.0
960,-0.007695030301621208,0.0
961,0.02232799017301744,0.0
962,0.016688931398739913,0.0
963,0.044316731653851284,0.0
964,-0.05053365969542745,0.0
965,-0.025681839290380072,0.0
966,-0.05179748355906855,0.0
967,1.0417407562560892,0.0
968,6.576239067527518,0.0
969,1.1186978992495629,0.0
970,-1.6487181011844094,0.0
971,1.1357587809952137,0.0
972,-0.629394861303245,0.0
973,0.3945107760854445,0.0
974,-0.08805045603878978,0.0
975,0.027738876845874703,0.0
976,-0.014082925192890366,0.0
977,0.027808048472932702,0.0
978,-0.018456506732341303,0.0
979,-0.02093465091020424,0.0
980,-0.003437479218075537,0.0
981,-0.10221974822709953,0.0
982,-0.05429254792653689,0.0
983,0.05605344197506246,0.0
984,2.675742755090403,0.0
985,6.827672667952955,0.0
986,-2.0309555556858783,0.0
987,0.45395152935330174,0.0
988,0.019398558401186948,0.0
989,-0.04393330385730342,0.0
990,0.0434571345336608,0.0
991,0.031674533895503794,0.0
992,-0.0346871268819775,0.0
993,0.022114573311010848,0.0
994,0.02746447209495665,0.0
995,-0.039764485831845005,0.0
996,-0.033966806264681224,0.0
997,-0.10449438209922982,0.0
998,0.0032918598294500627,0.0
999,-0.024532099581007265,0.0
1000,0.3162796462647029,0.0
1001,4.870463697233322,0.0
1002,4.557922545298761,0.0
1003,-3.1385482609662683,0.0
1004,1.622022372130914,0.0
1005,-0.7947918574452306,0.0
1006,0.2782093174801524,0.0
1007,-0.14361776468639495,0.0
1008,0.02067783005789891,0.0
1009,-0.01684804139574289,0.0
1010,-0.03751815239865655,0.0
1011,-0.030509181886058036,0.0
1012,0.026136023499913785,0.0
1013,-0.06654950835264367,0.0
1014,0.00940184195218794,0.0
1015,-0.028487155482503246,0.0
1016,0.00942276952852001,0.0
1017,1.212257409453125,0.0
1018,6.657816778482287,0.0
1019,1.0842335801644216,0.0
1020,-1.6530687802499093,0.0
1021,1.0680213675417884,0.0
1022,-0.5006655023710774,0.0
1023,0.30813410204592967,0.0
1024,-0.07360699579815938,0.0
1025,0.06564969217219659,0.0
1026,0.04396180957964437,0.0
1027,-0.021085734244645292,0.0
1028,0.0856136163489197,0.0
1029,0.0650055121020246,0.0
1030,0.03836310039663875,0.0
1031,0.08415280805749754,0.0
1032,0.04282459219008547,0.0
1033,-0.01024022096854374,0.0
1034,2.7048542414860837,0.0
1035,6.798135648363624,0.0
1036,-2.0510280364532734,0.0
1037,0.4451879357884943,0.0
1038,0.011049865021421239,0.0
1039,-0.12678193157641052,0.0
1040,0.013453463408065705,0.0
1041,-0.016890353520355193,0.0
1042,0.03952705702402512,0.0
1043,0.05305854641932156,0.0
1044,0.0437503545090297,0.0
1045,0.0629403436398172,0.0
1046,0.10950676367510834,0.0
1047,0.02622035787606953,0.0
1048,0.0591747523403723,0.0
1049,0.13087305692058057,0.0
1050,0.35369449585179774,0.0
1051,4.903297748768034,0.0
1052,4.570791523437941,0.0
1053,-2.9157350120843204,0.0
1054,1.6503679983709798,0.0
1055,-0.773505073779146,0.0
1056,0.3303911122533997,0.0
1057,-0.04366700131397281,0.0
1058,-0.003824275126672147,0.0
1059,-0.009504192660773646,0.0
1060,-0.04316706186475866,0.0
1061,-0.0023224762445220913,0.0
1062,-0.032150499528325834,0.0
1063,-0.17343829376177683,0.0
1064,0.03903414302318421,0.0
1065,0.012033521165780589,0.0
1066,-0.04577774604787705,0.0
1067,1.1841936652622094,0.0
1068,6.651452689102243,0.0
1069,1.007969899422824,0.0
1070,-1.7018848050360174,0.0
1071,1.0016840786212828,0.0
1072,-0.48782997766114056,0.0
1073,0.22429835720577634,0.0
1074,-0.00595271283657052,0.0
1075,-0.00048277841609298267,0.0
1076,0.09449722407706876,0.0
1077,0.07757660590478091,0.0
1078,-0.05027972698080872,0.0
1079,0.028572637109147724,0.0
1080,0.06665363183625761,0.0
1081,0.03482641572753735,0.0
1082,0.04236585048969489,0.0
1083,0.1131244449003529,0.0
1084,2.85700299061377,0.0
1085,6.843495943121713,0.0
1086,-2.200976706852204,0.0
1087,0.49180005977093394,0.0
1088,0.060174678596089756,0.0
1089,0.05249484921382703,0.0
1090,0.010185033476737281,0.0
1091,0.022526850665300416,0.0
1092,-0.03500793842887588,0.0
1093,-0.043259788156190165,0.0
1094,-0.035506734373334146,0.0
1095,0.03320259515588205,0.0
1096,0.054521669683753736,0.0
1097,0.05001327893457404,0.0
1098,-0.023642840297617675,0.0
1099,0.05035432072625601,0.0
1100,0.30124742689071465,0.0
1101,4.940925904882747,0.0
1102,4.530349274652562,0.0
1103,-2.980137074829238,0.0
1104,1.6212664662012382,0.0
1105,-0.7834155410909575,0.0
1106,0.4580031777098116,0.0
1107,-0.10976610890078617,0.0
1108,0.02135733115477608,0.0
1109,-0.0787883895417376,0.0
1110,-0.025839616245620894,0.0
1111,-0.012688489799079078,0.0
1112,0.00830128064391411,0.0
1113,0.00045319369655002486,0.0
1114,0.13198049449039292,0.0
1115,-0.02399171021768389,0.0
1116,0.06111259257542636,0.0
1117,1.113783842934743,0.0
1118,6.638799621944562,0.0
1119,0.8795593794913417,0.0
1120,-1.689406750370919,0.0
1121,1.2142537856961129,0.0
1122,-0.5378246487489298,0.0
1123,0.23557929608039152,0.0
1124,-0.1668517238218947,0.0
1125,0.16490376049313568,0.0
1126,0.07324699446570407,0.0
1127,0.04814594275243489,0.0
1128,0.06752113912825841,0.0
1129,0.03958134956057397,0.0
1130,0.028216302501211894,0.0
1131,-0.09647091157013317,0.0
1132,-0.12171217443407818,0.0
1133,0.05492045670892721,0.0
1134,2.6729573945177973,0.0
1135,6.819508730658298,0.0
1136,-2.1989558411841923,0.0
1137,0.4550443133726161,0.0
1138,-0.0017294156396690241,0.0
1139,-0.10323437887376552,0.0
1140,-0.05512692236415748,0.0
1141,-0.072662443080975,0.0
1142,-0.10348223119175753,0.0
1143,-0.027474374810211574,0.0
1144,-0.0906140416343536,0.0
1145,-0.10604157965915603,0.0
1146,-0.0665439121543008,0.0
1147,0.05616704531487471,0.0
1148,-0.05537651186122118,0.0
1149,0.01443031029212214,0.0
1150,0.36263811436987364,0.0
1151,4.928971083439311,0.0
1152,4.4485996759028525,0.0
1153,-3.049788524458213,0.0
1154,1.4991882781410248,0.0
1155,-0.7653772092328213,0.0
1156,0.30192902161529805,0.0
1157,-0.23082522096670002,0.0
1158,0.048395871422050186,0.0
1159,-0.02384913064550723,0.0
1160,-0.1351999088664497,0.0
1161,-0.003804727723622607,0.0
1162,-0.15080052762762783,0.0
1163,-0.013840197423907127,0.0
1164,-0.08478641408622395,0.0
1165,-0.025953468414670996,0.0
1166,0.04344703046895777,0.0
1167,1.1603707691568135,0.0
1168,6.609058818870658,0.0
1169,0.9943355988791722,0.0
1170,-1.5676412054053022,0.0
1171,1.049231534211537,0.0
1172,-0.6124835773416193,0.0
1173,0.11350465238990212,0.0
1174,-0.1468961699376286,0.0
1175,-0.09282741794126434,0.0
1176,-0.11812823727531191,0.0
1177,-0.16305735428864665,0.0
1178,-0.15177957985762217,0.0
1179,-0.2885595544396844,0.0
1180,-0.1843366463065994,0.0
1181,-0.22726175790250197,0.0
1182,-0.27060047377277524,0.0
1183,-0.12046189191492071,0.0
1184,2.586568399262496,0.0
1185,6.607531000647137,0.0
1186,-2.3162124976486784,0.0
1187,0.24795117597700816,0.0
1188,-0.14814667612386567,0.0
1189,-0.17177461086591755,0.0
1190,-0.08802523082920871,0.0
1191,-0.047712338488165126,0.0
1192,-0.05350986548119374,0.0
1193,-0.03702474512015807,0.0
1194,-0.11263668616960028,0.0
1195,-0.043723148189250466,0.0
1196,-0.042224621591217835,0.0
1197,-0.10462980471976066,0.0
1198,-0.024507954438302407,0.0
1199,-0.0343487030467456,0.0
1200,0.1873470832744823,0.0
1201,4.823613475943994,0.0
1202,4.451922473438771,0.0
1203,-3.0041113703292432,0.0
1204,1.5344297672192906,0.0
1205,-0.8965270098244318,0.0
1206,0.2748453913871482,0.0
1207,-0.17601633676851489,0.0
1208,-0.002082606439405728,0.0
1209,-0.14161729147835833,0.0
1210,-0.026541251902059408,0.0
1211,-0.167632078939615,0.0
1212,-0.2184321721287822,0.0
1213,-0.032136451991298304,0.0
1214,-0.043675026484982275,0.0
1215,-0.0420014253321767,0.0
1216,-0.020885980623158405,0.0
1217,1.1229756177280368,0.0
1218,6.6616992380138464,0.0
1219,0.9385502596234404,0.0
1220,-1.6144095120500768,0.0
1221,1.0838864063911997,0.0
1222,-0.5507590737868936,0.0
1223,0.3305907626024561,0.0
1224,-0.04648014830591149,0.0
1225,0.06477494922666714,0.0
1226,-0.08026370295757063,0.0
1227,0.023468869271033026,0.0
1228,-0.08644733459181589,0.0
1229,-0.054611377726480274,0.0
1230,-0.05456428196489124,0.0
1231,-0.06503488073958022,0.0
1232,-0.0798870650210148,0.0
1233,-0.038811534080033905,0.0
1234,2.806650804994321,0.0
1235,6.632016710163565,0.0
1236,-2.297124163693266,0.0
1237,0.48552772217454127,0.0
1238,0.03544010097576804,0.0
1239,-0.023258152609140305,0.0
1240,-0.11510318493579681,0.0
1241,0.03692034606594252,0.0
1242,-0.07095886877335891,0.0
1243,0.0010414049639276765,0.0
1244,0.025107883527262585,0.0
1245,0.037418714319120465,0.0
1246,-0.03492213262309083,0.0
1247,-0.060870108266441805,0.0
1248,-0.07119111181254509,0.0
1249,-0.03674141475138584,0.0
1250,0.2828877725494204,0.0
1251,4.905350754586664,0.0
1252,4.446314005743505,0.0
1253,-2.9533739742503693,0.0
1254,1.545047798186169,0.0
1255,-0.8092729119873946,0.0
1256,0.25393807141530256,0.0
1257,-0.18371549809026108,0.0
1258,0.020356248323953975,0.0
1259,-0.06419842274544257,0.0
1260,-0.05814024826166332,0.0
1261,0.018866508160250213,0.0
1262,0.009432681106115738,0.0
1263,-0.051263245667830165,0.0
1264,0.012349009983423599,0.0
1265,0.05754724343743775,0.0
1266,0.03972551512353097,0.0
1267,1.227655104835142,0.0
1268,6.691549232839507,0.0
1269,0.9388412317124828,0.0
1270,-1.5034019134884364,0.0
1271,1.1641525532318528,0.0
1272,-0.5972045383796333,0.0
1273,0.35421983835651727,0.0
1274,-0.10225189254062114,0.0
1275,0.1119639593351546,0.0
1276,-0.07504734494990101,0.0
1277,-0.015937869761645164,0.0
1278,-0.0859054094220874,0.0
1279,0.030453248618679627,0.0
1280,-0.059929420977212655,0.0
1281,-0.06543556679120625,0.0
1282,0.0015671328261250735,0.0
1283,0.11341463433220002,0.0
1284,2.845369169087042,0.0
1285,6.729059259227463,0.0
1286,-2.1802159797789664,0.0
1287,0.4872374243730113,0.0
1288,-0.09362620742925244,0.0
1289,-0.018419428642320455,0.0
1290,0.05240250010067186,0.0
1291,-0.02557370678291729,0.0
1292,0.00531737317670492,0.0
1293,0.020623761363700213,0.0
1294,-0.030737513562404506,0.0
1295,-0.04253149202208687,0.0
1296,0.04417024218732176,0.0
1297,-0.07426393224316703,0.0
1298,-0.04701716762114789,0.0
1299,0.07273440450767485,0.0
1300,0.3138977455390864,0.0
1301,4.9836033173862795,0.0
1302,4.441686736604292,0.0
1303,-3.0196349481510025,0.0
1304,1.5803691581684163,0.0
1305,-0.7675310877524647,0.0
1306,0.3849636403670509,0.0
1307,-0.09157290308836884,0.0
1308,0.01751558065507538,0.0
1309,0.01701142309230705,0.0
1310,0.07010457357830445,0.0
1311,0.041245818884297895,0.0
1312,0.03221880594777976,0.0
1313,0.07788284764616357,0.0
1314,-0.002495882332333164,0.0
1315,-0.037727863883825194,0.0
1316,-0.012432387194848044,0.0
1317,1.1044553367104364,0.0
1318,6.607261470549769,0.0
1319,0.7856183410259425,0.0
1320,-1.7409328632825571,0.0
1321,1.031036308608208,0.0
1322,-0.6239114395486559,0.0
1323,0.10551278862871266,0.0
1324,-0.17716070127993006,0.0
1325,0.05109514470273049,0.0
1326,0.013146218363417332,0.0
1327,0.003487032892110352,0.0
1328,-0.0228011502670049,0.0
1329,0.024241865941070122,0.0
1330,-0.02881615488970704,0.0
1331,0.04809021609636477,0.0
1332,0.04343957396352645,0.0
1333,0.1165219308839833,0.0
1334,2.9182061344351733,0.0
1335,6.805874908168195,0.0
1336,-2.1222774152111983,0.0
1337,0.6377561485700817,0.0
1338,0.09965136673308045,0.0
1339,0.03004798378689622,0.0
1340,0.0642075466284422,0.0
1341,0.030587418729681275,0.0
1342,0.07683539067919483,0.0
1343,0.0966686361454229,0.0
1344,0.017468257680065907,0.0
1345,0.1484284346447766,0.0
1346,0.06319622423739121,0.0
1347,0.12316065498791896,0.0
1348,-0.03977989218520815,0.0
1349,-0.002309523008530316,0.0
1350,0.42529740089877144,0.0
1351,4.979013294792746,0.0
1352,4.5138459077430255,0.0
1353,-2.9536547501951915,0.0
1354,1.5761765673702661,0.0
1355,-0.7378431668094633,0.0
1356,0.40241921671479813,0.0
1357,-0.10622431903519872,0.0
1358,0.04202766458061281,0.0
1359,0.03269821834620322,0.0
1360,0.04460480656664976,0.0
1361,0.0401787576622025,0.0
1362,0.07466880122260441,0.0
1363,0.08304917458190185,0.0
1364,0.1080289260133995,0.0
1365,0.05583418518362166,0.0
1366,0.011081966178772214,0.0
1367,1.2156284173821088,0.0
1368,6.641403051528939,0.0
1369,0.9956744838088816,0.0
1370,-1.5686511605737246,0.0
1371,1.055720292649358,0.0
1372,-0.5727741440210407,0.0
1373,0.21931561094391833,0.0
1374,-0.14580812970139204,0.0
1375,0.06967245375050343,0.0
1376,-0.07639900577133012,0.0
1377,0.09931297351709914,0.0
1378,0.03166834810672567,0.0
1379,0.054978678574068345,0.0
1380,-0.022555634241818556,0.0
1381,0.004579373254044061,0.0
1382,0.039201431998651365,0.0
1383,0.19246004147116874,0.0
1384,2.8286522883339504,0.0
1385,6.678316066188451,0.0
1386,-2.180847325669896,0.0
1387,0.5769436290212813,0.0
1388,-0.0015200860455633694,0.0
1389,0.0024401977958474607,0.0
1390,-0.054412921391208256,0.0
1391,-0.019808947158664936,0.0
1392,-0.007940298607432091,0.0
1393,0.0013060546892051184,0.0
1394,0.061885896423510146,0.0
1395,-0.0015777316040488133,0.0
1396,0.03916169497149477,0.0
1397,0.05500071120194643,0.0
1398,0.0023314477643116595,0.0
1399,0.038923412502327615,0.0
1400,0.446941707466607,0.0
1401,5.020999972810849,0.0
1402,4.307595263945921,0.0
1403,-2.9708951930656564,0.0
1404,1.544917496374833,0.0
1405,-0.967547912080952,0.0
1406,0.21438723765542728,0.0
1407,-0.288698817276345,0.0
1408,-0.045288232787593634,0.0
1409,-0.19567545623444088,0.0
1410,-0.18457140859189036,0.0
1411,-0.10112031668870708,0.0
1412,-0.12080909172956221,0.0
1413,-0.10701454804182986,0.0
1414,-0.13891695589319256,0.0
1415,-0.19994090752776567,0.0
1416,-0.09790436121514945,0.0
1417,1.1177037258814553,0.0
1418,6.595990579534379,0.0
1419,0.8142657501161535,0.0
1420,-1.5592798257069813,0.0
1421,1.0773043670499005,0.0
1422,-0.4837547009108468,0.0
1423,0.30040256675115573,0.0
1424,-0.10200576733707428,0.0
1425,0.024881101142921847,0.0
1426,0.01839546426255207,0.0
1427,-0.02894776894202628,0.0
1428,0.034835211790969614,0.0
1429,0.01661492315656146,0.0
1430,-0.02210936448460142,0.0
1431,0.001187892850080037,0.0
1432,-0.018937325888502998,0.0
1433,-0.00993705865502649,0.0
1434,2.887409881763302,0.0
1435,6.6716745416533,0.0
1436,-2.3619752065112616,0.0
1437,0.48000278136082725,0.0
1438,-0.07996551911964371,0.0
1439,0.025887173876822864,0.0
1440,-0.03714450801449543,0.0
1441,0.059538219317544924,0.0
1442,-0.12058634491348096,0.0
1443,-0.025699866167306178,0.0
1444,-0.06467039477755435,0.0
1445,0.0068728957190379025,0.0
1446,-0.013409639442271975,0.0
1447,-0.016371794989241576,0.0
1448,0.019502963392061576,0.0
1449,-0.14012379205778513,0.0
1450,0.33237191809510447,0.0
1451,5.016528846197603,0.0
1452,4.330501216039339,0.0
1453,-3.015513160533618,0.0
1454,1.4893501101008464,0.0
1455,-0.849579610610313,0.0
1456,0.2932727213833445,0.0
1457,-0.17392852383759133,0.0
1458,-0.016039501688379705,0.0
1459,-0.09384031008175558,0.0
1460,-0.059727137832162616,0.0
1461,0.0013905576428031065,0.0
1462,-0.006454048915332973,0.0
1463,-0.13709755068767962,0.0
1464,-0.07508933704420556,0.0
1465,-0.022481904281992416,0.0
1466,0.04469194548088126,0.0
1467,1.1440839611430393,0.0
1468,6.689137910716243,0.0
1469,0.7942180914288028,0.0
1470,-1.6235844343952501,0.0
1471,1.0676056172342103,0.0
1472,-0.5204447355234171,0.0
1473,0.09207926935732849,0.0
1474,-0.05053782119068626,0.0
1475,-0.066839330209779,0.0
1476,-0.07936888009996146,0.0
1477,-0.007275218029804048,0.0
1478,-0.058751621122801384,0.0
1479,-0.029765948741656372,0.0
1480,-0.13336046945506858,0.0
1481,-0.03650344688988901,0.0
1482,-0.007961199518633756,0.0
1483,-0.012172613079233107,0.0
1484,2.8361843678601986,0.0
1485,6.648801568753862,0.0
1486,-2.2639035585812497,0.0
1487,0.506839981271001,0.0
1488,-0.12266588836413246,0.0
1489,-0.11322997914031488,0.0
1490,-0.03435402611489037,0.0
1491,-0.11255371158911083,0.0
1492,-0.08841419160406112,0.0
1493,-0.06487731389285192,0.0
1494,-0.05837020272979167,0.0
1495,-0.07061738000666537,0.0
1496,-0.05671281289886566,0.0
1497,0.012824118303286208,0.0
1498,0.03422075498555144,0.0
1499,-0.025975376572865767,0.0
1500,0.3322381879474128,0.0
1501,4.915298580371443,0.0
1502,4.418991093543367,0.0
1503,-2.9703752958802623,0.0
1504,1.558796331760389,0.0
1505,-0.8622478438336407,0.0
1506,0.23199569578311718,0.0
1507,-0.09633999371747418,0.0
1508,-0.05909766641566258,0.0
1509,-0.01637882393052185,0.0
1510,-0.06361528860807819,0.0
1511,-0.01805261255880709,0.0
1512,-0.06993870130515739,0.0
1513,-0.08729382245024842,0.0
1514,0.011739336391030648,0.0
1515,0.02520782245009887,0.0
1516,0.07663731235135579,0.0
1517,1.189298432231859,0.0
1518,6.681446525890131,0.0
1519,0.9602462971402874,0.0
1520,-1.4878605556034699,0.0
1521,1.14834889702064,0.0
1522,-0.47341627855829105,0.0
1523,0.2478048349966717,0.0
1524,-0.001491804418874032,0.0
1525,0.07777270653157929,0.0
1526,-0.00277885947744649,0.0
1527,-0.06087578125214413,0.0
1528,-0.0015512293101117743,0.0
1529,0.08734311668628382,0.0
1530,0.005474742196535299,0.0
1531,-0.05059012595013223,0.0
1532,-0.024936055046159505,0.0
1533,0.07430608365470756,0.0
1534,2.84793532196989,0.0
1535,6.63279628348277,0.0
1536,-2.4251569591140423,0.0
1537,0.5579322595604513,0.0
1538,-0.1014752989268444,0.0
1539,-0.0512752901431164,0.0
1540,-0.08831254406738485,0.0
1541,0.01140818963535701,0.0
1542,-0.10988551305950751,0.0
1543,-0.15074177677441408,0.0
1544,0.02576856691300302,0.0
1545,-0.027128659168503107,0.0
1546,0.07343998171318858,0.0
1547,-0.027849056046724947,0.0
1548,-0.0904927666746292,0.0
1549,-0.038844140086884915,0.0
1550,0.34564899300557184,0.0
1551,5.04033107152375,0.0
1552,4.325662239710246,0.0
1553,-2.876468765538491,0.0
1554,1.5417631350659424,0.0
1555,-0.7514798585261526,0.0
1556,0.18364493430463064,0.0
1557,-0.24748246536301632,0.0
1558,-0.035260351519504095,0.0
1559,-0.06030450037702456,0.0
1560,-0.10914153926402594,0.0
1561,-0.09525597326903626,0.0
1562,-0.02956227055768235,0.0
1563,-0.05033346243725241,0.0
1564,0.00956975944670068,0.0
1565,0.017861935334360583,0.0
1566,-0.1176308862727052,0.0
1567,1.157334235896096,0.0
1568,6.64062426382385,0.0
1569,0.7066784948047182,0.0
1570,-1.611040808626611,0.0
1571,1.0750972888561985,0.0
1572,-0.577622527558461,0.0
1573,0.17170729100693333,0.0
1574,-0.10496716495504645,0.0
1575,-0.08909122048709062,0.0
1576,-0.1699269453100172,0.0
1577,-0.09843547366276904,0.0
1578,-0.17643989885061906,0.0
1579,-0.05208006021173664,0.0
1580,-0.08744451995669218,0.0
1581,-0.11742090921562165,0.0
1582,-0.1558812175470934,0.0
1583,0.034662879107559046,0.0
1584,2.789198430088853,0.0
1585,6.623126412677839,0.0
1586,-2.3378196401519338,0.0
1587,0.6892330741056916,0.0
1588,-0.07000399612337663,0.0
1589,-0.018267013589428886,0.0
1590,0.04370982987131645,0.0
1591,-0.05040051489063072,0.0
1592,-0.019018649425584892,0.0
1593,-0.039778721207559056,0.0
1594,-0.05494085169664589,0.0
1595,-0.06923864828427836,0.0
1596,-0.02717690477246935,0.0
1597,-0.033356071013968216,0.0
1598,-0.07451759731376723,0.0
1599,0.047484234046825204,0.0
1600,0.35086133842726863,0.0
1601,4.988854990675708,0.0
1602,4.258590028967754,0.0
1603,-2.9768423008605143,0.0
1604,1.4320575764276742,0.0
1605,-0.8336053283230304,0.0
1606,0.2931471142551824,0.0
1607,-0.1156632101418402,0.0
1608,-0.07562354870547361,0.0
1609,-0.0925863679293686,0.0
1610,0.00043335147012910774,0.0
1611,-0.0060335425015186385,0.0
1612,-0.0489176133807939,0.0
1613,-0.029006222974461482,0.0
1614,-0.09044794430101538,0.0
1615,0.00481358454391944,0.0
1616,-0.002296439124815433,0.0
1617,1.1849616165914354,0.0
1618,6.723286991944586,0.0
1619,0.8518335799293153,0.0
1620,-1.5937152794005272,0.0
1621,0.9071478036001046,0.0
1622,-0.6214039836729,0.0
1623,0.15456685410872859,0.0
1624,-0.1827072507281624,0.0
1625,-0.01739296592913906,0.0
1626,-0.125064135207505,0.0
1627,-0.06193393984541046,0.0
1628,-0.04918392638795182,0.0
1629,-0.10315462175102605,0.0
1630,0.034502610834091084,0.0
1631,-0.06572025304732812,0.0
1632,-0.021025160893509098,0.0
1633,-0.10235603046804642,0.0
1634,2.968107142847676,0.0
1635,6.5844323044201545,0.0
1636,-2.396983405558583,0.0
1637,0.5332547287559747,0.0
1638,-0.1286640294638778,0.0
1639,-0.0024726252720308206,0.0
1640,-0.1496293841481482,0.0
1641,-0.06465439688505495,0.0
1642,-0.019157031606078193,0.0
1643,-0.05380522320094856,0.0
1644,-0.118633971464169,0.0
1645,-0.06459504736694566,0.0
1646,-0.1318923630437294,0.0
1647,-0.16689835015256932,0.0
1648,-0.12883347919686927,0.0
1649,-0.05689401666698178,0.0
1650,0.2233768891339025,0.0
1651,4.920262668647916,0.0
1652,4.130965461691108,0.0
1653,-3.0979827048858937,0.0
1654,1.4837707746627553,0.0
1655,-0.9277713854253221,0.0
1656,0.252053118022364,0.0
1657,-0.14709596411611964,0.0
1658,-0.0026283735383792264,0.0
1659,-0.050257284143118884,0.0
1660,0.009568086295379072,0.0
1661,-0.05356339926098156,0.0
1662,-0.07007057420357836,0.0
1663,-0.0671979193965766,0.0
1664,-0.05092572720249147,0.0
1665,-0.01880276796632649,0.0
1666,-0.004328874669150072,0.0
1667,1.2435162692829125,0.0
1668,6.719263590965232,0.0
1669,0.647090703058147,0.0
1670,-1.4639966087195535,0.0
1671,1.0068725474014473,0.0
1672,-0.6597455949777404,0.0
1673,0.22911945079517315,0.0
1674,-0.023850102608658802,0.0
1675,-0.010821780221675877,0.0
1676,-0.12136126705037967,0.0
1677,-0.057632472459074484,0.0
1678,-0.1401390662404792,0.0
1679,-0.098997240905422,0.0
1680,-0.015015759201495577,0.0
1681,-0.06302139163183898,0.0
1682,-0.11633444014052459,0.0
1683,-0.016027556826857362,0.0
1684,2.8956434824990334,0.0
1685,6.646110215027813,0.0
1686,-2.3326986609621962,0.0
1687,0.5435841091313238,0.0
1688,-0.1906257327408844,0.0
1689,-0.050915539639551644,0.0
1690,-0.09184400382928973,0.0
1691,0.06671184700491121,0.0
1692,-0.010504757260636717,0.0
1693,-0.010858480379203006,0.0
1694,-0.07400540561146819,0.0
1695,-0.17899781282810917,0.0
1696,-0.061566218578517476,0.0
1697,-0.03865205216744348,0.0
1698,-0.034876987379196436,0.0
1699,-0.017112301207575592,0.0
1700,0.31840220786943424,0.0
1701,5.061953112794571,0.0
1702,4.275474773604396,0.0
1703,-2.989680907793253,0.0
1704,1.5186110357909313,0.0
1705,-0.8423376115304838,0.0
1706,0.3759522582183088,0.0
1707,-0.12100120604431858,0.0
1708,0.09543137323469858,0.0
1709,-0.09197813858022043,0.0
1710,0.019589301920889476,0.0
1711,-0.012507083466661118,0.0
1712,0.013397017980395325,0.0
1713,0.07804698760551526,0.0
1714,-0.013903612948832484,0.0
1715,-0.009866224317293781,0.0
1716,-0.06314045803531028,0.0
1717,1.197737759790448,0.0
1718,6.715774883970118,0.0
1719,0.6341903072322382,0.0
1720,-1.443920141682866,0.0
1721,1.0785549169019388,0.0
1722,-0.5596769017655269,0.0
1723,0.18639130692227382,0.0
1724,-0.10902509808151706,0.0
1725,0.036767248445717146,0.0
1726,0.049964751951055375,0.0
1727,-0.004892121870724835,0.0
1728,-0.008364741758950911,0.0
1729,-0.06368445456588281,0.0
1730,-0.010839465033807352,0.0
1731,0.021780301829588025,0.0
1732,-0.04125779773950485,0.0
1733,0.13003204822769746,0.0
1734,2.8511293846193557,0.0
1735,6.677424858036291,0.0
1736,-2.2721734501460586,0.0
1737,0.6322160583188042,0.0
1738,-0.0920957492844523,0.0
1739,-0.06885272410445478,0.0
1740,-0.06548769894662679,0.0
1741,-0.045121931151578615,0.0
1742,0.0008566783748650691,0.0
1743,-0.13110330690338878,0.0
1744,-0.06241848788472519,0.0
1745,0.009120554880697206,0.0
1746,-0.033201709247361114,0.0
1747,0.042674900413694955,0.0
1748,-0.00711261565223004,0.0
1749,0.026503993758460936,0.0
1750,0.42319727484231506,0.0
1751,5.028980238428905,0.0
1752,4.245879252488888,0.0
1753,-2.9116221902567148,0.0
1754,1.5382903010147395,0.0
1755,-0.8141136893501388,0.0
1756,0.2608892622723519,0.0
1757,-0.15936599820115788,0.0
1758,0.07030163014498228,0.0
1759,-0.054082670981574335,0.0
1760,0.02859783204450454,0.0
1761,-0.10310677758231725,0.0
1762,0.0172923445593913,0.0
1763,-0.012101223651869573,0.0
1764,-0.02737080351130968,0.0
1765,-0.02726432765522726,0.0
1766,0.022765226081219732,0.0
1767,1.3398857572062561,0.0
1768,6.663951982366084,0.0
1769,0.6785945476734359,0.0
1770,-1.5269577305770117,0.0
1771,0.9755656641258609,0.0
1772,-0.5217388986945235,0.0
1773,0.24368870821254635,0.0
1774,-0.1134447322758106,0.0
1775,-0.009321127929386087,0.0
1776,-0.16729647642131273,0.0
1777,-0.06938111116123123,0.0
1778,0.05288754419783753,0.0
1779,-0.04931315688269236,0.0
1780,0.00921793295494953,0.0
1781,0.018907753118423604,0.0
1782,0.02711860650793277,0.0
1783,-0.02730785836659254,0.0
1784,2.9789064190101455,0.0
1785,6.648627901684526,0.0
1786,-2.384228376685703,0.0
1787,0.666614019974502,0.0
1788,-0.07176266827066907,0.0
1789,-0.010947660088712518,0.0
1790,0.006668864761854052,0.0
1791,-0.07257221136023682,0.0
1792,-0.06137308640779475,0.0
1793,-0.09589268432464376,0.0
1794,0.01967068887546216,0.0
1795,-0.03245210706315207,0.0
1796,-0.07359203066872223,0.0
1797,-0.10683852260253633,0.0
1798,-0.05437596531973681,0.0
1799,-0.16325594563669257,0.0
1800,0.2983323564468695,0.0
1801,4.982681860062194,0.0
1802,4.157483265555228,0.0
1803,-3.1005558262213464,0.0
1804,1.4967433183030543,0.0
1805,-0.8738079120635968,0.0
1806,0.3008891760846552,0.0
1807,-0.1925172995190204,0.0
1808,0.040568366929117694,0.0
1809,-0.08178803681374522,0.0
1810,0.004812108066179162,0.0
1811,0.016451019064958678,0.0
1812,0.1376659175666329,0.0
1813,0.05110555378701041,0.0
1814,0.0753040340279299,0.0
1815,0.062945516347781,0.0
1816,-0.029603477140473136,0.0
1817,1.3842513652902688,0.0
1818,6.659941957162964,0.0
1819,0.7137017875457252,0.0
1820,-1.3748339589789798,0.0
1821,1.085644183794424,0.0
1822,-0.578578012774156,0.0
1823,0.22741813486607027,0.0
1824,0.006719927346744883,0.0
1825,0.0435966143722223,0.0
1826,0.050421701726601785,0.0
1827,-0.010819715339935934,0.0
1828,-0.05352822518099136,0.0
1829,0.06364539582437725,0.0
1830,-0.03878508841865686,0.0
1831,-0.049145854513822744,0.0
1832,-0.061720665930948757,0.0
1833,0.05007514802946421,0.0
1834,2.9475878359751504,0.0
1835,6.642089517265944,0.0
1836,-2.2832905566219655,0.0
1837,0.6228328923489266,0.0
1838,-0.15567610749602429,0.0
1839,0.02945784395906767,0.0
1840,-0.06829819679256512,0.0
1841,0.017709201890296948,0.0
1842,-0.004330765308054091,0.0
1843,0.012730885586765227,0.0
1844,-0.05736353533089198,0.0
1845,0.016643948494317592,0.0
1846,-0.025571041341096397,0.0
1847,0.05415877340445056,0.0
1848,-0.059911023557142576,0.0
1849,-0.14365705001959583,0.0
1850,0.4380266015890312,0.0
1851,5.097532447302452,0.0
1852,4.22170418457969,0.0
1853,-2.862393078799989,0.0
1854,1.516048115233755,0.0
1855,-0.7512087980464097,0.0
1856,0.326797527749376,0.0
1857,-0.10321019308692808,0.0
1858,-0.008188639012193515,0.0
1859,-0.06741873652922212,0.0
1860,-0.027241183265252572,0.0
1861,0.09121383657289259,0.0
1862,0.009696473766438049,0.0
1863,0.07847926242143546,0.0
1864,0.04338312345748139,0.0
1865,0.08266014547188072,0.0
1866,0.012659247021990998,0.0
1867,1.3180122744988334,0.0
1868,6.71187354431321,0.0
1869,0.6930052531898871,0.0
1870,-1.457774849464859,0.0
1871,1.1183371159831648,0.0
1872,-0.4833395398660391,0.0
1873,0.22875204629598256,0.0
1874,-0.044331046303451124,0.0
1875,0.04434893791882204,0.0
1876,-0.06522729404750369,0.0
1877,0.07836785368840844,0.0
1878,0.022739304514650026,0.0
1879,-0.03422770355838856,0.0
1880,-0.030788454781716372,0.0
1881,0.05613427107110038,0.0
1882,0.08596362173698362,0.0
1883,0.02154208312264729,0.0
1884,3.0364908074336987,0.0
1885,6.632859491020266,0.0
1886,-2.292329079989913,0.0
1887,0.7013577937814723,0.0
1888,-0.16634973503571648,0.0
1889,0.09970642023870496,0.0
1890,0.03320324808008672,0.0
1891,0.07322207697320152,0.0
1892,0.041914225425279464,0.0
1893,-0.03385085390197491,0.0
1894,-0.07819546420194859,0.0
1895,-0.09787022920988372,0.0
1896,-0.025182443410737606,0.0
1897,-0.06550475139309025,0.0
1898,-0.11189712787738249,0.0
1899,-0.00856417448391307,0.0
1900,0.33625247650876494,0.0
1901,5.018038265076242,0.0
1902,4.232813793511337,0.0
1903,-2.875184247703149,0.0
1904,1.5352855343596925,0.0
1905,-0.8318346168802425,0.0
1906,0.22403481988050516,0.0
1907,-0.10094343694603736,0.0
1908,-0.031948989421543394,0.0
1909,0.11714112395545306,0.0
1910,-0.025493144045601854,0.0
1911,-0.00861124703668533,0.0
1912,0.07186827283454811,0.0
1913,0.14370518068183602,0.0
1914,0.014621724382706352,0.0
1915,0.06420909610034055,0.0
1916,0.07268897467073873,0.0
1917,1.3878084910307333,0.0
1918,6.842704124014155,0.0
1919,0.6346715789603002,0.0
1920,-1.4082936430214001,0.0
1921,1.1254804345734075,0.0
1922,-0.5261411747564261,0.0
1923,0.2852976176301032,0.0
1924,-0.027159650405408537,0.0
1925,0.12173717784342691,0.0
1926,0.03038722015221973,0.0
1927,-0.023494928728873953,0.0
1928,0.048924121367095466,0.0
1929,0.0456683021405741,0.0
1930,-0.032971097779557236,0.0
1931,0.06951454129439348,0.0
1932,0.016640350368238147,0.0
1933,0.026351165899140182,0.0
1934,3.0436614058824922,0.0
1935,6.6250452484304425,0.0
1936,-2.3026287112978236,0.0
1937,0.697108834206094,0.0
1938,-0.1525980401141514,0.0
1939,-0.040622007656864134,0.0
1940,0.06155047712706139,0.0
1941,0.05894875060573302,0.0
1942,0.16242957550436954,0.0
1943,0.060153806933389224,0.0
1944,-0.022005670342516555,0.0
1945,0.0072841539901391875,0.0
1946,-0.027940042423214365,0.0
1947,-0.011342580292975142,0.0
1948,-0.03173870860012214,0.0
1949,-0.03877223854130169,0.0
1950,0.4782003299160534,0.0
1951,5.152268166123697,0.0
1952,4.218664566484485,0.0
1953,-2.921906812308541,0.0
1954,1.6898336605337227,0.0
1955,-0.7766105074547442,0.0
1956,0.32490323790309394,0.0
1957,-0.09885924797902614,0.0
1958,0.08010384997051483,0.0
1959,0.03185647467916542,0.0
1960,0.06954505929337565,0.0
1961,0.09126146904785291,0.0
1962,0.029175482837798423,0.0
1963,-0.01254540936242076,0.0
1964,0.13392003136577318,0.0
1965,0.00988883115903487,0.0
1966,-0.02311155314302034,0.0
1967,1.4013687475350673,0.0
1968,6.72269562408102,0.0
1969,0.699744662400731,0.0
1970,-1.3958859548277947,0.0
1971,1.0333632976624938,0.0
1972,-0.47572900730287343,0.0
1973,0.3377884090489448,0.0
1974,0.009733060645668083,0.0
1975,0.07186394975246635,0.0
1976,0.08747109386679268,0.0
1977,0.018535620906684626,0.0
1978,0.09017959826296001,0.0
1979,0.03640271816137966,0.0
1980,0.07682631958790723,0.0
1981,-0.06392941444802386,0.0
1982,0.016067131117484555,0.0
1983,0.05454400980363955,0.0
1984,3.008172655043263,0.0
1985,6.560045900223244,0.0
1986,-2.2634855848834308,0.0
1987,0.704794039182459,0.0
1988,-0.22515764081144754,0.0
1989,0.04800216995467929,0.0
1990,-0.02920610597620063,0.0
1991,-0.05810514270748257,0.0
1992,-0.01932055392101354,0.0
1993,0.009028433014292746,0.0
1994,-0.0010046538443234969,0.0
1995,-0.12598686877192866,0.0
1996,-0.03514211797138249,0.0
1997,0.008623309381111695,0.0
1998,0.017975398331953968,0.0
1999,0.04763133691559544,0.0
2000,0.38243999922000244,0.0
2001,5.1691108613648264,0.0
2002,4.1801354501831165,0.0
2003,-2.922161523018747,0.0
2004,1.5438015416410034,0.0
2005,-0.7954781159749514,0.0
2006,0.3376803025581495,0.0
2007,-0.14070985600993002,0.0
2008,0.0632464164305128,0.0
2009,-0.06168277759274876,0.0
2010,0.08014089312084785,0.0
2011,0.020544267140630425,0.0
2012,-0.03618266001575132,0.0
2013,-0.030083912161747252,0.0
2014,0.026226460679184098,0.0
2015,0.041902651991201176,0.0
2016,0.1552797082658821,0.0
2017,1.221107348343949,0.0
2018,6.799545867233803,0.0
2019,0.6398418624995851,0.0
2020,-1.521006123641762,0.0
2021,0.8948892952115337,0.0
2022,-0.5633535388978222,0.0
2023,0.19364513611285808,0.0
2024,-0.02216149769385363,0.0
2025,-0.0202353769496,0.0
2026,0.04289921186541967,0.0
2027,-0.016818073359524302,0.0
2028,-0.011157339906115006,0.0
2029,0.03310999162959591,0.0
2030,0.029916157045068024,0.0
2031,-0.027024884756663224,0.0
2032,0.041833273625003234,0.0
2033,0.0911743106429074,0.0
2034,3.005862586128597,0.0
2035,6.575435771466197,0.0
2036,-2.3425837304622465,0.0
2037,0.630012511868146,0.0
2038,-0.14686740208309815,0.0
2039,0.07040739835868229,0.0
2040,-0.042870388751428894,0.0
2041,-0.015782653924418737,0.0
2042,-0.03562603526724573,0.0
2043,0.0744718972414959,0.0
2044,-0.014721322522718589,0.0
2045,0.03808511269793707,0.0
2046,-0.02340298563944703,0.0
2047,0.01072177073419624,0.0
2048,-0.08470018999416902,0.0
2049,0.02658231666143643,0.0
2050,0.45282544783526996,0.0
2051,5.202082118065396,0.0
2052,4.232980695523354,0.0
2053,-2.890295408073376,0.0
2054,1.6427256596469986,0.0
2055,-0.6944991969694208,0.0
2056,0.3535648426566069,0.0
2057,-0.08472881783590061,0.0
2058,-0.018164403230401832,0.0
2059,0.10257430668069326,0.0
2060,0.1392915721000973,0.0
2061,0.1256532271596752,0.0
2062,0.036605534456442615,0.0
2063,0.08152418806705113,0.0
2064,0.07932072118467445,0.0
2065,0.03052201350645679,0.0
2066,0.007299623658374693,0.0
2067,1.4063851150060385,0.0
2068,6.788402231256649,0.0
2069,0.5823448465244297,0.0
2070,-1.3603766879693464,0.0
2071,0.8931586165294394,0.0
2072,-0.43182817835909365,0.0
2073,0.1638365370961891,0.0
2074,-0.1339321740351863,0.0
2075,-0.0815531482107115,0.0
2076,0.109658310796873,0.0
2077,0.04348954929108861,0.0
2078,0.06367536111113466,0.0
2079,0.05846468039592616,0.0
2080,0.19529964457039067,0.0
2081,-0.020357234264604174,0.0
2082,0.07089994627062672,0.0
2083,0.12069377120230548,0.0
2084,3.0764863527704196,0.0
2085,6.605400349899333,0.0
2086,-2.293789557344532,0.0
2087,0.8451266131421447,0.0
2088,-0.1271828167400924,0.0
2089,0.10677200496635078,0.0
2090,0.03190405548819386,0.0
2091,0.09919371018983097,0.0
2092,0.03960654756737305,0.0
2093,0.020311286488079627,0.0
2094,-0.03564583723005166,0.0
2095,0.022151480708973957,0.0
2096,0.10701769502121744,0.0
2097,0.011792754254028558,0.0
2098,-0.0014899497395356592,0.0
2099,0.07396158319604718,0.0
2100,0.4332173112839564,0.0
2101,5.199831145645242,0.0
2102,4.1267759123193315,0.0
2103,-2.8348016184247236,0.0
2104,1.5825620740420874,0.0
2105,-0.7834962524734591,0.0
2106,0.33691845983579344,0.0
2107,-0.10774921681812845,0.0
2108,0.048759811839552136,0.0
2109,0.055836128284970345,0.0
2110,0.0821245224897696,0.0
2111,-0.020119450840963234,0.0
2112,-0.062179181043907905,0.0
2113,0.0336599714410478,0.0
2114,0.028155860311443487,0.0
2115,0.12202360803154587,0.0
2116,-0.0592112307478921,0.0
2117,1.2853261043378366,0.0
2118,6.7906078628744915,0.0
2119,0.4971297881423222,0.0
2120,-1.3852030037844896,0.0
2121,0.9668989964400011,0.0
2122,-0.4065699564541739,0.0
2123,0.243829964332337,0.0
2124,-0.07153014275371028,0.0
2125,0.12163666779779055,0.0
2126,0.02901542636547917,0.0
2127,-0.07131159604517522,0.0
2128,-0.08684575204222625,0.0
2129,0.037739340318812695,0.0
2130,-0.00547015204637024,0.0
2131,0.0043841826512796495,0.0
2132,0.04879846186756141,0.0
2133,0.03902140927910018,0.0
2134,3.1086803316667977,0.0
2135,6.648042701750565,0.0
2136,-2.326891411505846,0.0
2137,0.7626574713435962,0.0
2138,-0.0602187031582677,0.0
2139,0.12843559154371115,0.0
2140,0.10467255266783775,0.0
2141,0.10163416966509552,0.0
2142,0.03285979122015592,0.0
2143,0.07475000621986116,0.0
2144,0.01186762691350908,0.0
2145,0.07323776847223777,0.0
2146,-0.004803020173864067,0.0
2147,0.03527152126715277,0.0
2148,0.008807650605273384,0.0
2149,0.05174534974948245,0.0
2150,0.466470341463561,0.0
2151,5.198953757136036,0.0
2152,4.159870495979511,0.0
2153,-2.8257190111125037,0.0
2154,1.6043668195586147,0.0
2155,-0.7930358012767231,0.0
2156,0.30192476097556387,0.0
2157,-0.13027806519441554,0.0
2158,0.15056745421236484,0.0
2159,0.01805973542710237,0.0
2160,0.044737072518184595,0.0
2161,0.025088629800970475,0.0
2162,0.020354950428125775,0.0
2163,0.060862618556629076,0.0
2164,0.08362789307732436,0.0
2165,0.001405995546157543,0.0
2166,0.023675245224771296,0.0
2167,1.3836802817092446,0.0
2168,6.814210753193717,0.0
2169,0.5276790645429731,0.0
2170,-1.3770113154695354,0.0
2171,1.01414885590148,0.0
2172,-0.5870503759491008,0.0
2173,0.18731418687449555,0.0
2174,-0.019426344168739167,0.0
2175,0.052303080313930064,0.0
2176,-0.008174843438221713,0.0
2177,0.009343814785291324,0.0
2178,0.12497718715077534,0.0
2179,0.08899870733040566,0.0
2180,0.04021023458220284,0.0
2181,0.04551241276669547,0.0
2182,0.05975194639468611,0.0
2183,0.09601779068079713,0.0
2184,3.1241300980887265,0.0
2185,6.613942486394872,0.0
2186,-2.347627006529069,0.0
2187,0.6485122887276695,0.0
2188,-0.11112051439895185,0.0
2189,0.04280049720841825,0.0
2190,0.030073587056109533,0.0
2191,0.09919286143789671,0.0
2192,0.011609690231968579,0.0
2193,0.04909393933736914,0.0
2194,-0.06865086933313355,0.0
2195,-0.01674756432846709,0.0
2196,-0.024556514679040936,0.0
2197,0.008021711826865938,0.0
2198,-0.024155664858204223,0.0
2199,-0.010865526129851148,0.0
2200,0.4192551480318645,0.0
2201,5.210977788118677,0.0
2202,3.99217746088951,0.0
2203,-2.8862601371664898,0.0
2204,1.626802083452466,0.0
2205,-0.8650843008399932,0.0
2206,0.22892353415340205,0.0
2207,-0.13724316095545946,0.0
2208,0.008318327170278762,0.0
2209,-0.05462951792095925,0.0
2210,-0.0165090638113225,0.0
2211,0.011121375019710847,0.0
2212,-0.06605078601855575,0.0
2213,-0.020423473641622558,0.0
2214,0.011668929134531866,0.0
2215,-0.03281772477748488,0.0
2216,-0.020570783297028022,0.0
2217,1.244027175510052,0.0
2218,6.673123317809326,0.0
2219,0.46144372184898524,0.0
2220,-1.405695677207676,0.0
2221,1.0059136521045824,0.0
2222,-0.5751256197567104,0.0
2223,0.16824374762538194,0.0
2224,-0.08245426112161777,0.0
2225,-0.06924942700016495,0.0
2226,-0.016782548674569922,0.0
2227,-0.10157643779782063,0.0
2228,-0.038493216228871176,0.0
2229,-0.11041621296697722,0.0
2230,0.06468830704492756,0.0
2231,-0.05453011159072017,0.0
2232,0.0030866906096740677,0.0
2233,0.038782575224643,0.0
2234,3.0558343351381647,0.0
2235,6.5606966024909825,0.0
2236,-2.4712816826944475,0.0
2237,0.7641912827182675,0.0
2238,-0.23531835604274237,0.0
2239,0.04937858331887173,0.0
2240,-0.0969031228240105,0.0
2241,-0.03175654769631901,0.0
2242,-0.07163762277064642,0.0
2243,0.03589965233873796,0.0
2244,-0.0063150789086484915,0.0
2245,-0.13433361683816764,0.0
2246,-0.027787174456528868,0.0
2247,-0.03818637176200988,0.0
2248,-0.1297241719870913,0.0
2249,0.06149198214785499,0.0
2250,0.29479959545372436,0.0
2251,5.098914677494486,0.0
2252,4.01862866782135,0.0
2253,-2.980280392503411,0.0
2254,1.4883947179275467,0.0
2255,-0.7813789671065572,0.0
2256,0.2724347573497955,0.0
2257,-0.12932536239492018,0.0
2258,-0.01904898569214896,0.0
2259,-0.12997188290476955,0.0
2260,-0.1342179390553944,0.0
2261,-0.03444244997846432,0.0
2262,-0.07830617614770385,0.0
2263,-0.11616473265829691,0.0
2264,-0.09999736520559657,0.0
2265,-0.0033518522015600904,0.0
2266,0.013355004934634027,0.0
2267,1.2684540272800062,0.0
2268,6.699905094375718,0.0
2269,0.4433730885271394,0.0
2270,-1.4443567937139024,0.0
2271,0.9034453169900052,0.0
2272,-0.4792721296191521,0.0
2273,0.2438661517329745,0.0
2274,-0.20281170704382434,0.0
2275,0.03939015710715707,0.0
2276,0.05529746938668964,0.0
2277,0.02231350879409086,0.0
2278,-0.052209052526348707,0.0
2279,-0.09814967985738997,0.0
2280,0.016521050196581198,0.0
2281,-0.011679325769246303,0.0
2282,-0.10645019586245885,0.0
2283,0.040547180805194684,0.0
2284,2.9976669719871554,0.0
2285,6.498317920033419,0.0
2286,-2.5149153062626666,0.0
2287,0.7108153608650792,0.0
2288,-0.2281022930783543,0.0
2289,-0.037435395157508385,0.0
2290,-0.18644475773892688,0.0
2291,-0.11974036634354765,0.0
2292,-0.03469963200296123,0.0
2293,-0.10777275110474276,0.0
2294,-0.04054287880862068,0.0
2295,-0.004786826743678849,0.0
2296,-0.02434675166935532,0.0
2297,-0.12082535918746373,0.0
2298,-0.06956883804891244,0.0
2299,-0.0316903508484393,0.0
2300,0.3693758848929907,0.0
2301,5.149445107749698,0.0
2302,4.097260316403771,0.0
2303,-2.8292962587641646,0.0
2304,1.6342800129367905,0.0
2305,-0.8472606880478853,0.0
2306,0.3122227153104672,0.0
2307,-0.16709216992469483,0.0
2308,-0.03127764255229193,0.0
2309,-0.07212278703877009,0.0
2310,-0.1495891039730586,0.0
2311,-0.058955974715411044,0.0
2312,0.010698868088882305,0.0
2313,0.03469356558335315,0.0
2314,-0.005945191355150009,0.0
2315,-0.07742281960931538,0.0
2316,-0.03849739016496241,0.0
2317,1.2652292722701632,0.0
2318,6.712364559387247,0.0
2319,0.35577373314900546,0.0
2320,-1.3784946146046768,0.0
2321,0.9951272695736033,0.0
2322,-0.5347852934119274,0.0
2323,0.22638614936333512,0.0
2324,-0.16181416883086386,0.0
2325,-0.04397255747654988,0.0
2326,0.030441988339480308,0.0
2327,0.016203438721433403,0.0
2328,-0.07121232522364643,0.0
2329,0.0423750498581857,0.0
2330,-0.02346916550101763,0.0
2331,-0.10543610327102647,0.0
2332,-0.005300070543560284,0.0
2333,-0.009841374343308035,0.0
2334,3.0844755670921686,0.0
2335,6.553810955941757,0.0
2336,-2.42261190947909,0.0
2337,0.7790011139718714,0.0
2338,-0.19771958229289352,0.0
2339,-0.014792630610916986,0.0
2340,-0.07328847643257395,0.0
2341,-0.048376408466061865,0.0
2342,-0.05665021174158158,0.0
2343,-0.049090600363002425,0.0
2344,-0.11909218767891011,0.0
2345,-0.03422872009481497,0.0
2346,0.03426920488463472,0.0
2347,-0.016316920835030117,0.0
2348,0.05485999401956462,0.0
2349,0.06788225582579809,0.0
2350,0.34823350713782375,0.0
2351,5.225500491735907,0.0
2352,4.036916734822582,0.0
2353,-2.916573045321071,0.0
2354,1.5495449046446246,0.0
2355,-0.8968673628923215,0.0
2356,0.26297127691084654,0.0
2357,-0.17277601599210538,0.0
2358,-0.1098335752384117,0.0
2359,-0.18501516340328694,0.0
2360,-0.1644958161614875,0.0
2361,-0.11783429907541088,0.0
2362,-0.005186361013124197,0.0
2363,-0.16019848522355878,0.0
2364,-0.1544615902273493,0.0
2365,-0.04425698013420394,0.0
2366,-0.08110571862512311,0.0
2367,1.290166442294868,0.0
2368,6.714724493874734,0.0
2369,0.44039952941646393,0.0
2370,-1.3618180428734996,0.0
2371,1.0349456098105707,0.0
2372,-0.48863286752914215,0.0
2373,0.19247095086870894,0.0
2374,-0.07340941155348885,0.0
2375,0.05502144353926475,0.0
2376,-0.016404723176782987,0.0
2377,-0.022576346902131256,0.0
2378,0.0934537572014457,0.0
2379,0.0032218632436733334,0.0
2380,0.004628094445595456,0.0
2381,0.0027293821375662802,0.0
2382,0.04038223359092587,0.0
2383,0.1472396633872817,0.0
2384,3.139611842964471,0.0
2385,6.53948093271677,0.0
2386,-2.471760140839086,0.0
2387,0.8473691093699885,0.0
2388,-0.1856352680564915,0.0
2389,0.11474200787680701,0.0
2390,0.009397201513312966,0.0
2391,0.011709022406629552,0.0
2392,0.0005608268875133895,0.0
2393,-0.04515184614925706,0.0
2394,-0.008797900013835305,0.0
2395,-0.10706104806127056,0.0
2396,0.024592148946199675,0.0
2397,-0.027719545367587826,0.0
2398,0.12615822803694593,0.0
2399,-0.008984235206223459,0.0
2400,0.43616414941425863,0.0
2401,5.398398193585982,0.0
2402,4.167970344003651,0.0
2403,-2.70978982885761,0.0
2404,1.621290168337839,0.0
2405,-0.7332944653046336,0.0
2406,0.3436990826689156,0.0
2407,-0.09624803631104521,0.0
2408,0.07439927610417377,0.0
2409,-0.0486738268066702,0.0
2410,-0.030664050211008497,0.0
2411,0.05311373623288266,0.0
2412,0.06405829741699946,0.0
2413,0.031182816554722107,0.0
2414,0.0010433500488042993,0.0
2415,0.05874815737878551,0.0
2416,0.043757531165798856,0.0
2417,1.4379356180895992,0.0
2418,6.7921567682516475,0.0
2419,0.3588198164213823,0.0
2420,-1.3242344579834513,0.0
2421,1.0016021057727007,0.0
2422,-0.5151920583142239,0.0
2423,0.21866692763679726,0.0
2424,-0.0827466499573429,0.0
2425,0.07946006088295565,0.0
2426,0.014726646803461533,0.0
2427,0.05169921160551592,0.0
2428,0.09049048033755858,0.0
2429,0.0027069362259713042,0.0
2430,-0.044910096506492254,0.0
2431,0.0026294064641847054,0.0
2432,0.07035186551565736,0.0
2433,0.14741962351951116,0.0
2434,3.1165648792604217,0.0
2435,6.537130267777797,0.0
2436,-2.539549622445406,0.0
2437,0.7601810760465236,0.0
2438,-0.1378497077583602,0.0
2439,0.0661496506970954,0.0
2440,0.022992539290381083,0.0
2441,0.009061811200327997,0.0
2442,0.020788716834151132,0.0
2443,0.08316861080040792,0.0
2444,0.00444591055109313,0.0
2445,0.0010212587322785682,0.0
2446,0.012597487910366911,0.0
2447,0.09976420930970414,0.0
2448,0.02930670268485676,0.0
2449,0.021627603799553842,0.0
2450,0.500366906290338,0.0
2451,5.27530360822095,0.0
2452,4.107158233378881,0.0
2453,-2.8197067848096893,0.0
2454,1.7455970988361396,0.0
2455,-0.7640258451776243,0.0
2456,0.42809740375845684,0.0
2457,0.04254916225624511,0.0
2458,0.1302732448303863,0.0
2459,0.06836813650591264,0.0
2460,0.09508370341493032,0.0
2461,-0.036750969140331886,0.0
2462,0.05687523938654603,0.0
2463,0.03426559102787183,0.0
2464,-0.0282295979426868,0.0
2465,-0.028892665392524487,0.0
2466,-0.018130842509448252,0.0
2467,1.4335582275593504,0.0
2468,6.8011351117785885,0.0
2469,0.3267750164530478,0.0
2470,-1.3232695204036937,0.0
2471,0.9612407872015812,0.0
2472,-0.47515061989311347,0.0
2473,0.21765395311220875,0.0
2474,-0.1947841414601007,0.0
2475,0.055828071228214454,0.0
2476,0.032719110903721274,0.0
2477,-0.10196206463757337,0.0
2478,-0.018084618041952796,0.0
2479,0.025723093014927197,0.0
2480,0.0902196568006727,0.0
2481,0.07919339443334167,0.0
2482,0.07312188690183496,0.0
2483,0.08589296331289938,0.0
2484,3.0408391598299334,0.0
2485,6.482181387379112,0.0
2486,-2.4407333794089157,0.0
2487,0.7752081063872375,0.0
2488,-0.17787933065851294,0.0
2489,0.022417315340504448,0.0
2490,-0.08352193691036586,0.0
2491,-0.041961159988171716,0.0
2492,-0.050960158925880586,0.0
2493,-0.057615250631229534,0.0
2494,-0.05984443071477369,0.0
2495,-0.09173744056355132,0.0
2496,-0.04310335064580743,0.0
2497,-0.04838066602730279,0.0
2498,-0.02599780817533443,0.0
2499,-0.132129939713434,0.0
2500,0.4513172816686265,0.0
2501,5.220404103444829,0.0
2502,3.9013314984689345,0.0
2503,-2.883904035774373,0.0
2504,1.528764154036191,0.0
2505,-0.8949193464898312,0.0
2506,0.30226376209104416,0.0
2507,-0.2040201699139234,0.0
2508,-0.004269065052521993,0.0
2509,-0.03873734876793822,0.0
2510,-0.05167308101622486,0.0
2511,-0.09851021952950106,0.0
2512,-0.10771223988725301,0.0
2513,-0.04476515758924961,0.0
2514,-0.07948685199137073,0.0
2515,-0.10611546090705115,0.0
2516,-0.08297827232560719,0.0
2517,1.3552032821135354,0.0
2518,6.824991124606799,0.0
2519,0.268254643608423,0.0
2520,-1.347707026010812,0.0
2521,0.9267720744109508,0.0
2522,-0.5428907097312506,0.0
2523,0.192022693000102,0.0
2524,-0.17960524827284347,0.0
2525,0.007195909106322465,0.0
2526,-0.07938560315052168,0.0
2527,-0.05149380585299475,0.0
2528,-0.04723794337930756,0.0
2529,-0.07514848323171032,0.0
2530,-0.027002746484925635,0.0
2531,-0.053090843284642,0.0
2532,-0.1352995796569532,0.0
2533,0.03465210852736468,0.0
2534,3.012742218124138,0.0
2535,6.425108620696032,0.0
2536,-2.599784141205973,0.0
2537,0.7210228235081296,0.0
2538,-0.3281798972687665,0.0
2539,0.016272506929112588,0.0
2540,-0.15157372046446968,0.0
2541,-0.1328508463430435,0.0
2542,-0.02866878887569535,0.0
2543,-0.12306233885062108,0.0
2544,-0.0894549220581765,0.0
2545,-0.04553676704032653,0.0
2546,0.00013861950144322677,0.0
2547,-0.04572256471159403,0.0
2548,0.012909714104483744,0.0
2549,-0.07953972275823108,0.0
2550,0.4469278255390484,0.0
2551,5.212751863661355,0.0
2552,3.8521536622102808,0.0
2553,-3.0234017906831814,0.0
2554,1.5550880691988171,0.0
2555,-0.9672357027032118,0.0
2556,0.15186085717008543,0.0
2557,-0.09455048200730787,0.0
2558,0.004715122615568147,0.0
2559,-0.11189804433545288,0.0
2560,-0.0056903351449321266,0.0
2561,-0.06018187002150206,0.0
2562,-0.12776699425536714,0.0
2563,-0.14771577253621623,0.0
2564,-0.16519027944671474,0.0
2565,-0.1092751698776542,0.0
2566,-0.13520483848546566,0.0
2567,1.2849798092983284,0.0
2568,6.615223661905259,0.0
2569,0.17866512218355843,0.0
2570,-1.34326366359385,0.0
2571,0.7476780462336026,0.0
2572,-0.6029231721996469,0.0
2573,0.05649189734927848,0.0
2574,-0.15984500097772553,0.0
2575,0.026734168919691784,0.0
2576,-0.14402555009859663,0.0
2577,-0.11585903473139596,0.0
2578,-0.03436205386204523,0.0
2579,0.020057758027875544,0.0
2580,-0.09747976520586779,0.0
2581,-0.059737564678768465,0.0
2582,-0.06747981359293825,0.0
2583,0.00750771629143915,0.0
2584,3.2232866010505963,0.0
2585,6.349787824071486,0.0
2586,-2.577567089414552,0.0
2587,0.7370868351902616,0.0
2588,-0.33986542658893126,0.0
2589,-0.020826264270846575,0.0
2590,-0.18825362527892883,0.0
2591,-0.07818914412906451,0.0
2592,-0.09709039857125534,0.0
2593,-0.04361615070389786,0.0
2594,-0.1280841035412932,0.0
2595,-0.1754189873085159,0.0
2596,-0.16654841131195883,0.0
2597,-0.14315345740587032,0.0
2598,-0.12215449026667981,0.0
2599,-0.023694954078267216,0.0
2600,0.4098772895927075,0.0
2601,5.17953178502699,0.0
2602,3.80436611180696,0.0
2603,-2.8784717694751105,0.0
2604,1.5481355248024766,0.0
2605,-0.795532212577289,0.0
2606,0.24763549705238397,0.0
2607,-0.14246636808646448,0.0
2608,-0.0371544896774726,0.0
2609,-0.09271620253472534,0.0
2610,-0.08585692020953672,0.0
2611,-0.11897087719516479,0.0
2612,-0.04384465819877442,0.0
2613,-0.05451458593707636,0.0
2614,-0.05354214770680196,0.0
2615,-0.030009331019609953,0.0
2616,-0.03684919036566758,0.0
2617,1.3977936144691856,0.0
2618,6.741681778958627,0.0
2619,0.3046815580539452,0.0
2620,-1.2550696104101455,0.0
2621,0.9359025532095009,0.0
2622,-0.4505078198310586,0.0
2623,0.25579869403149147,0.0
2624,-0.1378597160930438,0.0
2625,0.04255371970955142,0.0
2626,-0.014797098774510128,0.0
2627,0.03115248163330716,0.0
2628,-0.014831657750307734,0.0
2629,-0.038651561159565,0.0
2630,-0.04982429748543327,0.0
2631,-0.07180894047434594,0.0
2632,-0.09390884430482604,0.0
2633,0.0018912125904064284,0.0
2634,3.1011008374195517,0.0
2635,6.449899692651268,0.0
2636,-2.6589025218172133,0.0
2637,0.7351295513292088,0.0
2638,-0.3116451868145253,0.0
2639,-0.020820976295771204,0.0
2640,-0.13150882292263566,0.0
2641,-0.07924641962986129,0.0
2642,-0.04943608738474767,0.0
2643,-0.09632921040349918,0.0
2644,-0.09299541736578651,0.0
2645,-0.006658257495830003,0.0
2646,0.055764083466186075,0.0
2647,-0.04320992749192449,0.0
2648,-0.05801948243436784,0.0
2649,0.04952812472867185,0.0
2650,0.39291299070238134,0.0
2651,5.295866650632715,0.0
2652,3.8668755055056057,0.0
2653,-2.8785204065521843,0.0
2654,1.6025187056344832,0.0
2655,-0.841781335459119,0.0
2656,0.3365980264026266,0.0
2657,-0.16375656091808197,0.0
2658,0.030986921740522116,0.0
2659,-0.0462525265328277,0.0
2660,-0.01238193287153352,0.0
2661,-0.04784571238455015,0.0
2662,0.00336847907900179,0.0
2663,0.031369494018434425,0.0
2664,0.046889882680987996,0.0
2665,-0.04018755019608616,0.0
2666,0.026961523197882867,0.0
2667,1.466923851794552,0.0
2668,6.875509321158647,0.0
2669,0.26556368058089963,0.0
2670,-1.2449233122205965,0.0
2671,0.8934714578467099,0.0
2672,-0.4283124803615507,0.0
2673,0.26613801333102266,0.0
2674,-0.06748452232069846,0.0
2675,-0.001628224543262149,0.0
2676,-0.06981656625174175,0.0
2677,-0.04486717994033017,0.0
2678,-0.06690616474032732,0.0
2679,-0.0686548298530965,0.0
2680,-0.016930327375761757,0.0
2681,-0.003373843704605653,0.0
2682,-0.11538357293155688,0.0
2683,0.00962077528653197,0.0
2684,3.1442786172485375,0.0
2685,6.456676556393656,0.0
2686,-2.546123525013082,0.0
2687,0.8426564873417741,0.0
2688,-0.24950082774415458,0.0
2689,0.04794743954663109,0.0
2690,-0.031392466008604375,0.0
2691,0.10829648882710143,0.0
2692,-0.03563301140948651,0.0
2693,0.025511071853531173,0.0
2694,0.07277829592133135,0.0
2695,0.017921522669985045,0.0
2696,-0.01391703444044274,0.0
2697,0.04961389902255184,0.0
2698,-0.03724225565990709,0.0
2699,-0.09689831394615582,0.0
2700,0.5215739197801667,0.0
2701,5.289580305842905,0.0
2702,3.8615802680258557,0.0
2703,-2.851588891937453,0.0
2704,1.5770627728678384,0.0
2705,-0.7695494391617882,0.0
2706,0.3347026014555823,0.0
2707,-0.15042079863091296,0.0
2708,-0.022305699982636963,0.0
2709,-0.020857419519565736,0.0
2710,-0.03770947413853708,0.0
2711,-0.06921880268452109,0.0
2712,0.05918325590529889,0.0
2713,0.04917219341481502,0.0
2714,-0.07883628576431524,0.0
2715,-0.06245178341985278,0.0
2716,-0.014452261593106995,0.0
2717,1.4866711927380063,0.0
2718,6.870462847232287,0.0
2719,0.3348767295678302,0.0
2720,-1.2245306467565777,0.0
2721,0.9364059799250385,0.0
2722,-0.42081148546757535,0.0
2723,0.1912909517053052,0.0
2724,-0.054036272778536294,0.0
2725,0.0037797301749469686,0.0
2726,0.0504115707368979,0.0
2727,-0.044385221287145615,0.0
2728,0.019938497109359972,0.0
2729,-0.0021696994912659417,0.0
2730,-0.002360122008996497,0.0
2731,0.09864432988100051,0.0
2732,0.04061721633284397,0.0
2733,0.014564314102446532,0.0
2734,3.239041952127254,0.0
2735,6.480742366611776,0.0
2736,-2.4116204678071296,0.0
2737,0.8640638897754385,0.0
2738,-0.14406561936617573,0.0
2739,0.022688357649153668,0.0
2740,-0.06676288684093913,0.0
2741,0.0782595501844364,0.0
2742,0.046569044258103626,0.0
2743,0.011804264540283205,0.0
2744,-0.009227856950472825,0.0
2745,0.06850277362146076,0.0
2746,0.060006935274963986,0.0
2747,0.010046541726673866,0.0
2748,0.06627010133022786,0.0
2749,0.11714666269751522,0.0
2750,0.5841479691307704,0.0
2751,5.435543581014628,0.0
2752,3.954338576729696,0.0
2753,-2.796391700104538,0.0
2754,1.6551061419366109,0.0
2755,-0.8058921770983545,0.0
2756,0.33235808152102575,0.0
2757,-0.12827106597773397,0.0
2758,0.0656974353106945,0.0
2759,-0.08412329017978842,0.0
2760,-0.09053731221680326,0.0
2761,-0.03538982959574324,0.0
2762,-0.028021696201819504,0.0
2763,0.054352594968179076,0.0
2764,-0.05019613137383089,0.0
2765,-0.07703260758694688,0.0
2766,0.00030135149164173605,0.0
2767,1.3962712455263104,0.0
2768,6.802091716113645,0.0
2769,0.23083898521465498,0.0
2770,-1.2243336911578198,0.0
2771,0.850559317373542,0.0
2772,-0.44941418691863705,0.0
2773,0.13961746780510698,0.0
2774,-0.09205355663342908,0.0
2775,0.08644442695543055,0.0
2776,0.04160051707941739,0.0
2777,-0.03787417620186397,0.0
2778,0.03548883893720891,0.0
2779,-0.0005293032502909113,0.0
2780,-0.025196057866888565,0.0
2781,0.020377379047632066,0.0
2782,0.01478408404459493,0.0
2783,0.12138875065391844,0.0
2784,3.1904247425077488,0.0
2785,6.400453427519293,0.0
2786,-2.540615294742074,0.0
2787,0.9142413827569588,0.0
2788,-0.27185066055486723,0.0
2789,0.12021913663769693,0.0
2790,-0.01387110135692642,0.0
2791,-0.019994615451976172,0.0
2792,0.11718148022131317,0.0
2793,0.11859604492547418,0.0
2794,0.003117170646723042,0.0
2795,0.030959236436779117,0.0
2796,0.05378729011861769,0.0
2797,0.05646781621588547,0.0
2798,0.09923231935106235,0.0
2799,-0.022016381428286817,0.0
2800,0.45839775303036906,0.0
2801,5.3156780066688105,0.0
2802,3.917927079758912,0.0
2803,-2.840655401293653,0.0
2804,1.5575482258181017,0.0
2805,-0.7778015545347958,0.0
2806,0.2735820346243467,0.0
2807,-0.06717604879977569,0.0
2808,0.09056038920545735,0.0
2809,0.028422099284444752,0.0
2810,-0.0029642815883868037,0.0
2811,0.03999915819254486,0.0
2812,-0.07706547704248878,0.0
2813,0.05593991194873338,0.0
2814,0.04654872080758117,0.0
2815,0.009973192291738884,0.0
2816,-0.02962907261507285,0.0
2817,1.5012482675944643,0.0
2818,6.883641914856766,0.0
2819,0.16060876942501728,0.0
2820,-1.3170376804252335,0.0
2821,0.896339782056874,0.0
2822,-0.47042435411195693,0.0
2823,0.13344375006707065,0.0
2824,-0.18455222533919804,0.0
2825,-0.044150290559906706,0.0
2826,0.017106823174804917,0.0
2827,0.027970015915544322,0.0
2828,-0.005759848948474878,0.0
2829,-0.05228156530112092,0.0
2830,0.01533263638506169,0.0
2831,0.02570809460677941,0.0
2832,-0.011805083313604733,0.0
2833,0.010416692739783531,0.0
2834,3.211658619742542,0.0
2835,6.469743454903814,0.0
2836,-2.5806468234892206,0.0
2837,0.8019814888144682,0.0
2838,-0.2727555499944854,0.0
2839,0.12258882415587305,0.0
2840,-0.15277194821924445,0.0
2841,-0.024344843857168064,0.0
2842,-0.003926402949663434,0.0
2843,-0.05082913184217268,0.0
2844,0.05581571634615495,0.0
2845,-0.012828051116053101,0.0
2846,0.07579998422065198,0.0
2847,-0.04043703805058861,0.0
2848,-0.03451977899747598,0.0
2849,-0.012441595058210205,0.0
2850,0.5074820066194897,0.0
2851,5.406618070500912,0.0
2852,3.8326729012640786,0.0
2853,-2.858651156934552,0.0
2854,1.6113362409754444,0.0
2855,-0.8329490526973559,0.0
2856,0.28875320536326277,0.0
2857,-0.1489788056386747,0.0
2858,-0.08094882177095698,0.0
2859,-0.07673140608366558,0.0
2860,-0.03771453014525075,0.0
2861,0.012320393165673807,0.0
2862,0.01909588995918736,0.0
2863,0.004323255373761048,0.0
2864,-0.0316223680475804,0.0
2865,-0.05743316933272138,0.0
2866,-0.05067191813259246,0.0
2867,1.2764845569568917,0.0
2868,6.876235891091833,0.0
2869,0.0779998464681891,0.0
2870,-1.2565157045072628,0.0
2871,0.743006851605708,0.0
2872,-0.4363455005125789,0.0
2873,0.13067970631496573,0.0
2874,-0.055519614950807594,0.0
2875,-0.03146889301796528,0.0
2876,0.02809218054753966,0.0
2877,-0.00878304518179815,0.0
2878,-0.03502741613835167,0.0
2879,0.03513488970722962,0.0
2880,-0.024083683483565207,0.0
2881,0.006402719069774698,0.0
2882,-0.042553204558071225,0.0
2883,0.0695815889867725,0.0
2884,3.304638203535234,0.0
2885,6.421820651217303,0.0
2886,-2.679614240689834,0.0
2887,0.8695596167766763,0.0
2888,-0.3181194551956745,0.0
2889,0.09258848102746577,0.0
2890,-0.06766100003168657,0.0
2891,0.019502307041675937,0.0
2892,-0.07798516363427341,0.0
2893,0.04135372454087343,0.0
2894,0.019496217717021095,0.0
2895,0.09350680360869502,0.0
2896,0.04381173682384216,0.0
2897,0.01589276543099978,0.0
2898,0.0507397042333886,0.0
2899,0.05960320170987863,0.0
2900,0.5991421966795836,0.0
2901,5.383616786408764,0.0
2902,3.830208319819606,0.0
2903,-2.694111035596238,0.0
2904,1.6278386590288716,0.0
2905,-0.759218596313118,0.0
2906,0.3302616063935176,0.0
2907,-0.04402328511721617,0.0
2908,0.047421390620949376,0.0
2909,0.053229451584210385,0.0
2910,0.053573743299516585,0.0
2911,0.04467627687745666,0.0
2912,0.05722298126184421,0.0
2913,-0.03299464639405866,0.0
2914,0.06122684621726164,0.0
2915,0.09998726176555446,0.0
2916,0.021962725752505324,0.0
2917,1.466944145171202,0.0
2918,6.839676813386346,0.0
2919,0.10113547695347966,0.0
2920,-1.086337194994807,0.0
2921,0.8887703078734436,0.0
2922,-0.4915968702420353,0.0
2923,0.19339685226023373,0.0
2924,-0.0748144392222084,0.0
2925,-0.025825863540691076,0.0
2926,-0.026894215513772125,0.0
2927,0.046191561123058764,0.0
2928,0.017118527625396028,0.0
2929,0.006436408327193152,0.0
2930,-0.05171551989807402,0.0
2931,0.026913756812844053,0.0
2932,0.060107072045666704,0.0
2933,0.08412761032054918,0.0
2934,3.226752035823339,0.0
2935,6.400569693564325,0.0
2936,-2.5065226319334117,0.0
2937,0.9195817997342742,0.0
2938,-0.22871654004303069,0.0
2939,0.03488469898511706,0.0
2940,-0.005900986664916237,0.0
2941,0.16469255723803475,0.0
2942,-0.012734029843036988,0.0
2943,0.022742214772985894,0.0
2944,-0.018898112622154076,0.0
2945,0.012933455784950214,0.0
2946,-0.04345600676172811,0.0
2947,-0.05702629852861942,0.0
2948,-0.004331306480443067,0.0
2949,0.04919713594694891,0.0
2950,0.46939830863231474,0.0
2951,5.429428302130517,0.0
2952,3.7375935430676677,0.0
2953,-2.8337610208456976,0.0
2954,1.5349155993496821,0.0
2955,-0.8258908855516215,0.0
2956,0.32984538820629256,0.0
2957,-0.16167984436264535,0.0
2958,-0.08609900941271345,0.0
2959,-0.11143387734780738,0.0
2960,0.08985888815829822,0.0
2961,0.02336745860355873,0.0
2962,0.06720251228907649,0.0
2963,-0.005077551036979563,0.0
2964,0.125955625475996,0.0
2965,0.03136379467777593,0.0
2966,-0.0693422043424719,0.0
2967,1.6027698491598095,0.0
2968,6.889286007277646,0.0
2969,0.0802312867121476,0.0
2970,-1.1447947735491362,0.0
2971,0.9432328585867586,0.0
2972,-0.4838444818589335,0.0
2973,0.18231950454575804,0.0
2974,-0.12619825994658168,0.0
2975,0.009628902340303225,0.0
2976,0.021409148824509353,0.0
2977,0.045738779482613845,0.0
2978,-0.0519899571924726,0.0
2979,0.01651777435393426,0.0
2980,-0.05087360217170742,0.0
2981,-0.04820255607295089,0.0
2982,-0.020519071520575215,0.0
2983,-0.054358729661280615,0.0
2984,3.1848351489951163,0.0
2985,6.293856470286256,0.0
2986,-2.6680836368231446,0.0
2987,0.825379655282707,0.0
2988,-0.24069968982946055,0.0
2989,0.13516056814815963,0.0
2990,-0.14223945332447704,0.0
2991,-0.043337959122922015,0.0
2992,-0.06817616427707787,0.0
2993,-0.024170137811597533,0.0
2994,-0.0509142777330164,0.0
2995,-0.030430108624799286,0.0
2996,-0.059403455557712884,0.0
2997,-0.024192801016375748,0.0
2998,-0.08089176289833303,0.0
2999,-0.09676920086513854,0.0
3000,0.4277273629098848,0.0
3001,5.3373369145373015,0.0
3002,3.6237400805535667,0.0
3003,-2.947625514814438,0.0
3004,1.5254116459566749,0.0
3005,-0.8477469984033635,0.0
3006,0.2720715248015558,0.0
3007,-0.1831026295644032,0.0
3008,-0.07742763213960153,0.0
3009,-0.10722483992875176,0.0
3010,-0.023863559300591322,0.0
3011,-0.0740622332970214,0.0
3012,0.047980497361722954,0.0
3013,-0.11138260646311395,0.0
3014,-0.12612297748349915,0.0
3015,-0.023174101449569447,0.0
3016,-0.03805059742321746,0.0
3017,1.4467987989133888,0.0
3018,6.818570975545788,0.0
3019,0.10593441722578932,0.0
3020,-1.1482102658518307,0.0
3021,0.6899566814009731,0.0
3022,-0.4712499829430309,0.0
3023,0.20651381894261578,0.0
3024,-0.09207890798914946,0.0
3025,-0.06912869832211782,0.0
3026,-0.018356895884735533,0.0
3027,-0.06775528929626018,0.0
3028,-0.06699441593952699,0.0
3029,-0.10356440830970101,0.0
3030,-0.051736070506446366,0.0
3031,-0.1120090751113553,0.0
3032,0.07897194746272171,0.0
3033,-0.03386578515154476,0.0
3034,3.2005992659342484,0.0
3035,6.3188663418194855,0.0
3036,-2.605779874019547,0.0
3037,0.7794804354684295,0.0
3038,-0.3106003424022522,0.0
3039,0.09816731994404947,0.0
3040,-0.15909254811465795,0.0
3041,0.0009803725210237799,0.0
3042,-0.11172106989830506,0.0
3043,-0.13773236516499543,0.0
3044,-0.13430644918446383,0.0
3045,-0.0361746251619939,0.0
3046,-0.08788767522650479,0.0
3047,0.08501848746355584,0.0
3048,-0.11019569846764248,0.0
3049,0.026652774699932796,0.0
3050,0.44778549173759813,0.0
3051,5.307090862724404,0.0
3052,3.6392749316444832,0.0
3053,-2.8599922443184522,0.0
3054,1.5591179329018612,0.0
3055,-0.8952350866488528,0.0
3056,0.3207387005856013,0.0
3057,-0.1652799386231396,0.0
3058,0.036372063485387185,0.0
3059,0.003269647838642281,0.0
3060,-0.0527259698945158,0.0
3061,-0.10397133268824026,0.0
3062,0.03327568415319134,0.0
3063,0.003882155221910398,0.0
3064,-0.14857120962053944,0.0
3065,-0.08873527897974659,0.0
3066,-0.11228368153676892,0.0
3067,1.4073753081114717,0.0
3068,6.821744146022846,0.0
3069,-0.019437746254301558,0.0
3070,-1.1386013991842339,0.0
3071,0.6955147143779303,0.0
3072,-0.5407943016685481,0.0
3073,0.19866405917861574,0.0
3074,-0.17915603204164754,0.0
3075,-0.030067609171979665,0.0
3076,0.03405082771011836,0.0
3077,-0.07063578863267571,0.0
3078,-0.10834683993965195,0.0
3079,0.061517846544673516,0.0
3080,0.043931001904712205,0.0
3081,-0.0989126130314197,0.0
3082,0.02555131166653493,0.0
3083,0.1134446677279317,0.0
3084,3.2523186081042192,0.0
3085,6.254565034757301,0.0
3086,-2.7099402298129616,0.0
3087,0.8213220901551762,0.0
3088,-0.41147291387673135,0.0
3089,0.0012369174800562462,0.0
3090,-0.1405878880509207,0.0
3091,-0.21224212029618922,0.0
3092,-0.05867430696250881,0.0
3093,0.013307372143280816,0.0
3094,-0.10892859103430949,0.0
3095,-0.05665752469273985,0.0
3096,-0.07560450761864149,0.0
3097,-0.09304994521353546,0.0
3098,0.01892828460761417,0.0
3099,0.03931805648826235,0.0
3100,0.5510589234953555,0.0
3101,5.435378937143412,0.0
3102,3.6843764789023496,0.0
3103,-2.893946435674313,0.0
3104,1.6009091328992429,0.0
3105,-0.9091917935526431,0.0
3106,0.3939315577128093,0.0
3107,-0.20152729829761049,0.0
3108,-0.03145333857991659,0.0
3109,-0.07007086070745737,0.0
3110,0.016115120319740543,0.0
3111,-0.224442330894138,0.0
3112,-0.020848861016269565,0.0
3113,-0.05193132285108949,0.0
3114,-0.07984100743765148,0.0
3115,-0.08939381741761268,0.0
3116,-0.11433747565396171,0.0
3117,1.4100852671056816,0.0
3118,6.873913241621698,0.0
3119,0.03259639037266144,0.0
3120,-1.1129227050389954,0.0
3121,0.822949624814382,0.0
3122,-0.485220023283392,0.0
3123,0.09775456767459641,0.0
3124,-0.10104549099350445,0.0
3125,0.03198173508211667,0.0
3126,0.022942203590870035,0.0
3127,-0.03392269004244083,0.0
3128,-0.036002846001943936,0.0
3129,-0.013784955826351199,0.0
3130,-0.045377393307872285,0.0
3131,0.01738905466921429,0.0
3132,0.01225508113873686,0.0
3133,0.07999475583430037,0.0
3134,3.3812094741862713,0.0
3135,6.390052158656427,0.0
3136,-2.58536944829098,0.0
3137,0.8529387235041465,0.0
3138,-0.19907283117807628,0.0
3139,0.03438936729212328,0.0
3140,-0.03363801992273342,0.0
3141,0.03144088967116732,0.0
3142,-0.00031085463026885377,0.0
3143,0.04948581975862734,0.0
3144,-0.04014035708082039,0.0
3145,-0.06396110519926972,0.0
3146,-0.04749040170556263,0.0
3147,0.01480181577447531,0.0
3148,-0.015344735115381564,0.0
3149,-0.03837856175784001,0.0
3150,0.5021082130385863,0.0
3151,5.424805931398334,0.0
3152,3.669046183878107,0.0
3153,-2.8357963105633255,0.0
3154,1.549691700080331,0.0
3155,-0.7647424513243526,0.0
3156,0.354159978534557,0.0
3157,-0.09404234782166987,0.0
3158,0.03262504802059286,0.0
3159,0.08811135817382823,0.0
3160,0.04731513309554268,0.0
3161,-0.06612492239519474,0.0
3162,-0.14696760372344156,0.0
3163,-0.022591908715263603,0.0
3164,-0.06095961838413355,0.0
3165,0.009745465705577109,0.0
3166,-0.016619286822970373,0.0
3167,1.494858156053556,0.0
3168,6.88982970180427,0.0
3169,-0.034788770252635146,0.0
3170,-1.1561915633417001,0.0
3171,0.8224280405879624,0.0
3172,-0.4355220764271331,0.0
3173,0.17543836108673713,0.0
3174,-0.21305832554447185,0.0
3175,-0.09418679541174718,0.0
3176,-0.06119467144864718,0.0
3177,-0.010421762156906975,0.0
3178,0.0018476267783529912,0.0
3179,-0.044336911349720606,0.0
3180,-0.009120363853213355,0.0
3181,0.009626143520670476,0.0
3182,-0.012568957093798336,0.0
3183,0.06433262728917838,0.0
3184,3.343397876233643,0.0
3185,6.358207902673959,0.0
3186,-2.6433241373482135,0.0
3187,0.9280065326857845,0.0
3188,-0.2748073917278136,0.0
3189,0.03275534742852983,0.0
3190,-0.07786125449908644,0.0
3191,0.016159090243764447,0.0
3192,0.05068699926200993,0.0
3193,0.028275017857386883,0.0
3194,-0.04290845312596939,0.0
3195,0.023447677783374737,0.0
3196,0.021463231436258057,0.0
3197,-0.05063365688680234,0.0
3198,-0.053583484913099666,0.0
3199,0.0015415517106868379,0.0
3200,0.40326825075893413,0.0
3201,5.412736361609376,0.0
3202,3.682452447877383,0.0
3203,-2.7479202725638414,0.0
3204,1.4789763833626934,0.0
3205,-0.8706619293406005,0.0
3206,0.33984007838721414,0.0
3207,-0.059601226275599876,0.0
3208,0.05557245791323766,0.0
3209,0.013905128437847619,0.0
3210,0.01894709447893092,0.0
3211,-0.04815833768319184,0.0
3212,0.0148073934950766,0.0
3213,0.013094606939612258,0.0
3214,-0.07132771223203574,0.0
3215,-0.07152777567334626,0.0
3216,0.04340110625048561,0.0
3217,1.4061711704444413,0.0
3218,6.840002801068387,0.0
3219,0.05647615933772218,0.0
3220,-1.1765291488140042,0.0
3221,0.7072466629531814,0.0
3222,-0.464242734581943,0.0
3223,0.14350233176198618,0.0
3224,-0.27780518674222704,0.0
3225,-0.07517164856062988,0.0
3226,-0.029916812408689774,0.0
3227,-0.05500330308262743,0.0
3228,-0.017170067567877673,0.0
3229,-0.0041274524776741955,0.0
3230,-0.00525870505456741,0.0
3231,-0.03553486760011709,0.0
3232,-0.04473035831809144,0.0
3233,0.16816142488569538,0.0
3234,3.3821220266436653,0.0
3235,6.356542216745181,0.0
3236,-2.6093158935201313,0.0
3237,1.0184576631764661,0.0
3238,-0.32179290734655025,0.0
3239,0.1496232020493392,0.0
3240,-0.01077782513301994,0.0
3241,-0.005413434777364286,0.0
3242,-0.02248111536301275,0.0
3243,0.019310326003831896,0.0
3244,-0.014366973099755525,0.0
3245,0.01663081919962354,0.0
3246,-0.01615129471465956,0.0
3247,0.009672785079502227,0.0
3248,0.005442969723283016,0.0
3249,-0.11076538045682072,0.0
3250,0.4115844857683795,0.0
3251,5.462307941082331,0.0
3252,3.5818464945204647,0.0
3253,-2.8071411474002557,0.0
3254,1.5207139225134412,0.0
3255,-0.8644595199254117,0.0
3256,0.3370470215477748,0.0
3257,-0.11818742636788798,0.0
3258,0.02120997606549842,0.0
3259,0.03119287157604253,0.0
3260,-0.010908733106994833,0.0
3261,-0.02005563273620862,0.0
3262,0.0877226656382593,0.0
3263,-0.09746655940018259,0.0
3264,-0.028521116818125386,0.0
3265,-0.08348680236807518,0.0
3266,0.014834725870602798,0.0
3267,1.4863768945599318,0.0
3268,6.768936521774693,0.0
3269,-0.1847279065537342,0.0
3270,-1.211644588580524,0.0
3271,0.6784717256666851,0.0
3272,-0.3934429781367799,0.0
3273,0.0362752115739836,0.0
3274,-0.12213234253401184,0.0
3275,-0.0718309958125124,0.0
3276,-0.05289671131184499,0.0
3277,-0.02637804608765898,0.0
3278,-0.1308873231740913,0.0
3279,-0.0174976111687858,0.0
3280,-0.011954913419133718,0.0
3281,-0.004624556172837364,0.0
3282,-0.05374496801456309,0.0
3283,-0.021210918247069083,0.0
3284,3.3087962110317957,0.0
3285,6.267425566475214,0.0
3286,-2.637987907176535,0.0
3287,0.8275964542652873,0.0
3288,-0.2901553720667148,0.0
3289,0.1384561605567651,0.0
3290,-0.02420655628486386,0.0
3291,-0.07026416632744187,0.0
3292,0.013158097108849728,0.0
3293,-0.0812373908600938,0.0
3294,-0.07331160116910085,0.0
3295,-0.07697339039525447,0.0
3296,-0.02093175471576523,0.0
3297,-0.09387354861128665,0.0
3298,-0.09640151609185724,0.0
3299,-0.07345314865719726,0.0
3300,0.5113475505493152,0.0
3301,5.572783933518453,0.0
3302,3.6241030126627596,0.0
3303,-2.7458916911810696,0.0
3304,1.4612609323113732,0.0
3305,-0.8040444972576293,0.0
3306,0.21644470390790432,0.0
3307,-0.2167710625237285,0.0
3308,-0.10539255209241419,0.0
3309,-0.11784117399182786,0.0
3310,-0.020764319585858164,0.0
3311,-0.1301231066532869,0.0
3312,-0.01077098667345082,0.0
3313,0.031207079982635673,0.0
3314,-0.05773811825100849,0.0
3315,-0.09412421387302064,0.0
3316,-0.10788484410668601,0.0
3317,1.4287841860801453,0.0
3318,6.74346775319396,0.0
3319,-0.11641754617159285,0.0
3320,-1.1457489782777137,0.0
3321,0.7997055580754279,0.0
3322,-0.37747845924319195,0.0
3323,0.0915153954534457,0.0
3324,-0.17402363325247863,0.0
3325,-0.04407215351881639,0.0
3326,-0.08298431009542656,0.0
3327,-0.1351595821078499,0.0
3328,-0.08941851268944408,0.0
3329,-0.07212346302650155,0.0
3330,-0.04497177441316609,0.0
3331,-0.0642495388368384,0.0
3332,-0.0449775122719614,0.0
3333,0.030354103899749064,0.0
3334,3.347270284481003,0.0
3335,6.220169315160166,0.0
3336,-2.727281382103415,0.0
3337,0.907708007098759,0.0
3338,-0.3818830856618989,0.0
3339,0.005095031455325808,0.0
3340,-0.17757822996970818,0.0
3341,-0.057868829474294774,0.0
3342,-0.10658380911719624,0.0
3343,0.04251903147935425,0.0
3344,-0.08880800025407362,0.0
3345,-0.09607834039941268,0.0
3346,-0.05163231699951511,0.0
3347,-0.14649609735737165,0.0
3348,0.04059129775434425,0.0
3349,-0.06595307520128667,0.0
3350,0.5695569157930782,0.0
3351,5.536689033288018,0.0
3352,3.5891435018901605,0.0
3353,-2.80491307086725,0.0
3354,1.5485799366144692,0.0
3355,-0.8102562877584223,0.0
3356,0.2316265686059209,0.0
3357,-0.02867401105651632,0.0
3358,0.04304292048232186,0.0
3359,0.04324430111173552,0.0
3360,0.022224500273365054,0.0
3361,-0.09179316979753524,0.0
3362,0.0022640331673579595,0.0
3363,-0.1362022336539926,0.0
3364,-0.0802218437042497,0.0
3365,-0.06291374971725512,0.0
3366,-0.06493780032749578,0.0
3367,1.3859034015591636,0.0
3368,6.793389607115472,0.0
3369,-0.159260006592176,0.0
3370,-1.1029227589840398,0.0
3371,0.8397728093042506,0.0
3372,-0.4942166087138335,0.0
3373,0.1413370340795757,0.0
3374,-0.17759313794060794,0.0
3375,-0.03354473021442485,0.0
3376,-0.061494592528878456,0.0
3377,-0.001611230831309221,0.0
3378,-0.07341047552420285,0.0
3379,0.016909128851815815,0.0
3380,-0.05837950340594898,0.0
3381,-0.02494374094759221,0.0
3382,-0.033448688502653035,0.0
3383,0.048570160364515925,0.0
3384,3.2448446757662115,0.0
3385,6.308856345630179,0.0
3386,-2.733774841275391,0.0
3387,0.9642967254687277,0.0
3388,-0.3523960722317594,0.0
3389,0.08037142537572715,0.0
3390,-0.0099392731176466,0.0
3391,0.03437118462341183,0.0
3392,-0.11958218633275908,0.0
3393,-0.08926083666698392,0.0
3394,-0.13337544543330082,0.0
3395,-0.07321920822678289,0.0
3396,-0.16271448758849472,0.0
3397,-0.025617917841957157,0.0
3398,-0.007753153405742445,0.0
3399,-0.028126715264102584,0.0
3400,0.3956085103070684,0.0
3401,5.521872308225215,0.0
3402,3.4413610386004714,0.0
3403,-2.775959988045925,0.0
3404,1.5268463058098933,0.0
3405,-0.7815994750718215,0.0
3406,0.2524541052448859,0.0
3407,-0.15561602543059022,0.0
3408,-0.10838087503077218,0.0
3409,0.01384396216937854,0.0
3410,0.0023059358992618753,0.0
3411,0.030705832265379117,0.0
3412,0.04488567073540545,0.0
3413,-0.10019659165502155,0.0
3414,0.04136958639026055,0.0
3415,-0.10011294355854936,0.0
3416,0.04239983283799235,0.0
3417,1.6117379368014495,0.0
3418,6.884928454584541,0.0
3419,-0.1512735533364053,0.0
3420,-0.9719495888612139,0.0
3421,0.7825807209776681,0.0
3422,-0.4441130811004549,0.0
3423,0.2568816938791554,0.0
3424,-0.11059116178151587,0.0
3425,-0.012462699245891305,0.0
3426,-0.015113949530203858,0.0
3427,-0.10268058853954472,0.0
3428,0.15615443162142353,0.0
3429,-0.0381035723346311,0.0
3430,-0.04449562970991562,0.0
3431,0.08995765251939551,0.0
3432,-0.007611273055651551,0.0
3433,0.04806344290055885,0.0
3434,3.3754181290888816,0.0
3435,6.273544119896869,0.0
3436,-2.7673512214957774,0.0
3437,0.9552540427198236,0.0
3438,-0.3339925785707704,0.0
3439,0.08291101554579614,0.0
3440,-0.11562232135673656,0.0
3441,-0.06614500877358215,0.0
3442,-0.08986352896462262,0.0
3443,-0.12046842057499142,0.0
3444,0.020487943598706218,0.0
3445,-0.10496499732696106,0.0
3446,-0.04147311070018486,0.0
3447,0.01805418370787633,0.0
3448,-0.046699178915466516,0.0
3449,0.0031451951235642664,0.0
3450,0.42551531754508953,0.0
3451,5.47398240276689,0.0
3452,3.4570219435231166,0.0
3453,-2.663200740389645,0.0
3454,1.6088297677331347,0.0
3455,-0.8651284613121111,0.0
3456,0.3842055800576878,0.0
3457,-0.08334587589076173,0.0
3458,0.11890530422504744,0.0
3459,-0.009337606319186044,0.0
3460,-0.016377989242124885,0.0
3461,0.017887350212186903,0.0
3462,0.024710019423403354,0.0
3463,0.08346025351479885,0.0
3464,0.002924131144865668,0.0
3465,0.09146688920138805,0.0
3466,0.06969576938315243,0.0
3467,1.5600856315075897,0.0
3468,6.858955752086156,0.0
3469,-0.05552218319819603,0.0
3470,-1.036894340240543,0.0
3471,0.6902975792202595,0.0
3472,-0.42415812530841857,0.0
3473,0.2036137720744059,0.0
3474,-0.012656687725606686,0.0
3475,-0.030079596805307793,0.0
3476,-0.10949097050828571,0.0
3477,0.026639730421343117,0.0
3478,-0.014523995339524785,0.0
3479,0.04694119028644134,0.0
3480,0.10080168508330804,0.0
3481,-0.06505964366190725,0.0
3482,0.02536789725693136,0.0
3483,0.030284135389145712,0.0
3484,3.329532236137982,0.0
3485,6.2572675200997,0.0
3486,-2.613534936553055,0.0
3487,0.9621974006545728,0.0
3488,-0.39811669088982704,0.0
3489,0.07685185967483371,0.0
3490,-0.061168238708301244,0.0
3491,0.05766244905367064,0.0
3492,-0.02524819077379078,0.0
3493,-0.04707584664613014,0.0
3494,0.03192960356230585,0.0
3495,-0.15148473799079573,0.0
3496,-0.03977411095695475,0.0
3497,-0.05035909257531811,0.0
3498,-0.07527322410210888,0.0
3499,-0.0760510092817124,0.0
3500,0.6077981342800216,0.0
3501,5.5665782136299224,0.0
3502,3.569750688354404,0.0
3503,-2.735057109330235,0.0
3504,1.5945478109418547,0.0
3505,-0.8358817385968296,0.0
3506,0.3218461858504798,0.0
3507,-0.0382037570726612,0.0
3508,0.03051999137434002,0.0
3509,-0.015870176592610596,0.0
3510,-0.05865159019719212,0.0
3511,-0.0855524984210692,0.0
3512,-0.10443916821776716,0.0
3513,-0.05204999518194768,0.0
3514,-0.07412234389752666,0.0
3515,-0.11284057279951888,0.0
3516,-0.13105758911264848,0.0
3517,1.4918020763467392,0.0
3518,6.809942211714467,0.0
3519,-0.24919947468888923,0.0
3520,-1.04775602855837,0.0
3521,0.8058472403145455,0.0
3522,-0.490157023087877,0.0
3523,0.12738724016391464,0.0
3524,-0.11622879326029523,0.0
3525,-0.06810373934229658,0.0
3526,-0.006521284739474192,0.0
3527,-0.09899247615021986,0.0
3528,-0.09532843485091745,0.0
3529,-0.03796613666643812,0.0
3530,-0.10698250249561807,0.0
3531,-0.11771939392618787,0.0
3532,-0.05694752574784733,0.0
3533,0.08953273300087275,0.0
3534,3.335428017246186,0.0
3535,6.152962372847619,0.0
3536,-2.7333631975194157,0.0
3537,0.9325494783357645,0.0
3538,-0.495477135364349,0.0
3539,0.06386877105984769,0.0
3540,-0.052835782536277714,0.0
3541,-0.09887770407560706,0.0
3542,-0.08835489534414678,0.0
3543,-0.07680758215515614,0.0
3544,-0.15934109501192711,0.0
3545,0.057296250434655374,0.0
3546,-0.1412003061356566,0.0
3547,0.04572614554689443,0.0
3548,0.016757620243869932,0.0
3549,-0.015285623245989859,0.0
3550,0.48449443223949423,0.0
3551,5.587530632985507,0.0
3552,3.4668164678568565,0.0
3553,-2.7441975480991285,0.0
3554,1.4967777444530115,0.0
3555,-0.8464682177743416,0.0
3556,0.27026563800425557,0.0
3557,-0.23417479161764554,0.0
3558,0.00048500297037323836,0.0
3559,-0.13034968324382135,0.0
3560,-0.07853347102084915,0.0
3561,-0.08941074730883819,0.0
3562,-0.11040429211875723,0.0
3563,-0.09623348597862152,0.0
3564,-0.05197407919758679,0.0
3565,-0.052500576432134856,0.0
3566,-0.05959453599973193,0.0
3567,1.6113390186543077,0.0
3568,6.819348853358764,0.0
3569,-0.11568921254295018,0.0
3570,-1.0019117410030196,0.0
3571,0.7599552393050738,0.0
3572,-0.40603134023809856,0.0
3573,0.18553138392451676,0.0
3574,-0.07849718479570215,0.0
3575,0.009479423630292687,0.0
3576,0.003456166657145175,0.0
3577,-0.042181952995514076,0.0
3578,0.008837713281628391,0.0
3579,-0.012849608075158434,0.0
3580,0.035978998093314576,0.0
3581,-0.06724312463520904,0.0
3582,0.018514176252561933,0.0
3583,0.08513210456745982,0.0
3584,3.450441999419642,0.0
3585,6.159066555453032,0.0
3586,-2.7954196513857807,0.0
3587,0.9744656979985686,0.0
3588,-0.4167086920607855,0.0
3589,0.04799936673543035,0.0
3590,-0.1262442825918791,0.0
3591,0.019601005346720407,0.0
3592,0.019285777990063147,0.0
3593,-0.08123617206447828,0.0
3594,-0.03146333415656271,0.0
3595,-0.02365370483595606,0.0
3596,-0.09372962260962717,0.0
3597,-0.04384238983247572,0.0
3598,-0.14116204158593382,0.0
3599,-0.00868392944139227,0.0
3600,0.48136655859669925,0.0
3601,5.504917356705115,0.0
3602,3.411007451942146,0.0
3603,-2.7638527835556075,0.0
3604,1.5638032757831286,0.0
3605,-0.8066606118049794,0.0
3606,0.24444462550704277,0.0
3607,-0.13771533105961453,0.0
3608,0.06465413163450454,0.0
3609,-0.04732717600136862,0.0
3610,-0.009948856215922446,0.0
3611,-0.1281959873635211,0.0
3612,0.019017722827631638,0.0
3613,0.09858289168853364,0.0
3614,-0.03714313641408293,0.0
3615,-0.031767578124660883,0.0
3616,-0.044345431154255745,0.0
3617,1.6344789304988894,0.0
3618,6.958084394551226,0.0
3619,-0.17138562680852687,0.0
3620,-0.8678420251871877,0.0
3621,0.7361305545571399,0.0
3622,-0.269759255070161,0.0
3623,0.1667197914861309,0.0
3624,-0.09028594242149943,0.0
3625,0.06892990612679298,0.0
3626,-0.001422211824406907,0.0
3627,0.03238351421067259,0.0
3628,0.04446952574459856,0.0
3629,0.06306163134235464,0.0
3630,0.02455166471858688,0.0
3631,0.034689116792289615,0.0
3632,-0.0016363811450583708,0.0
3633,0.11759352705609773,0.0
3634,3.468816651722095,0.0
3635,6.2307264669619515,0.0
3636,-2.658947697790577,0.0
3637,0.9655797406827089,0.0
3638,-0.2959212543832078,0.0
3639,0.14137179431831925,0.0
3640,-0.027556368235761318,0.0
3641,-0.020908229395429977,0.0
3642,-0.053275190068869535,0.0
3643,0.015001630341815095,0.0
3644,0.05440154963041248,0.0
3645,-0.03708387060085974,0.0
3646,-0.05473780195016652,0.0
3647,-0.05901841522917592,0.0
3648,-0.02989133783236738,0.0
3649,0.014197142289591328,0.0
3650,0.40599613869446577,0.0
3651,5.71114221363456,0.0
3652,3.396892178326772,0.0
3653,-2.6698184781063468,0.0
3654,1.6068445137137335,0.0
3655,-0.7131178104295728,0.0
3656,0.3248443231810301,0.0
3657,-0.046349415711082524,0.0
3658,0.08485062270198093,0.0
3659,0.07373569484114534,0.0
3660,-0.043849670582027406,0.0
3661,0.09409806834406031,0.0
3662,0.029379198134516782,0.0
3663,0.05513474360014087,0.0
3664,0.026701336214164383,0.0
3665,0.1342243517194587,0.0
3666,0.06296686645902197,0.0
3667,1.643587493813945,0.0
3668,6.913489617025907,0.0
3669,-0.17366293875404618,0.0
3670,-0.8321474919020746,0.0
3671,0.759125433003362,0.0
3672,-0.4026533994228835,0.0
3673,0.21142187579618915,0.0
3674,0.017444224620019193,0.0
3675,-0.01580984520668509,0.0
3676,0.04221637417061486,0.0
3677,0.04555190967860474,0.0
3678,0.060731306807558776,0.0
3679,0.02271007982459581,0.0
3680,-0.038702371081721816,0.0
3681,-0.02287185431481053,0.0
3682,0.037330399723744,0.0
3683,0.1299270443119306,0.0
3684,3.4506901910609837,0.0
3685,6.2453274997176305,0.0
3686,-2.8111847220215553,0.0
3687,1.0892009898021098,0.0
3688,-0.313791487461739,0.0
3689,0.1819236997454432,0.0
3690,0.16075263053027497,0.0
3691,0.10211913968087696,0.0
3692,0.06699426688022436,0.0
3693,0.07362100099294333,0.0
3694,0.07938751205370354,0.0
3695,0.0622159539544341,0.0
3696,0.08068843747459742,0.0
3697,0.04368894356832506,0.0
3698,0.13062969127234858,0.0
3699,0.061770348964972605,0.0
3700,0.6292265044272635,0.0
3701,5.613677740534934,0.0
3702,3.4224142063850262,0.0
3703,-2.6270678467253252,0.0
3704,1.511098650308692,0.0
3705,-0.7462594398402157,0.0
3706,0.32325557947244243,0.0
3707,-0.0758452737811394,0.0
3708,0.05316863517379763,0.0
3709,-0.045016901538580706,0.0
3710,0.09343233859275724,0.0
3711,0.09860249063436866,0.0
3712,0.12048171768832855,0.0
3713,-0.004219178880058891,0.0
3714,0.010775224266036013,0.0
3715,-0.04150396798990245,0.0
3716,0.09595647399558868,0.0
3717,1.665248049680204,0.0
3718,7.016804751868045,0.0
3719,-0.17887376219150114,0.0
3720,-0.9855725922885736,0.0
3721,0.9280420326805693,0.0
3722,-0.26798937861946676,0.0
3723,0.3030728501693103,0.0
3724,0.10506463306278054,0.0
3725,0.158609173488984,0.0
3726,0.01773280703512222,0.0
3727,0.11587248561703031,0.0
3728,0.11618038142094828,0.0
3729,0.14065113142358887,0.0
3730,0.06479811106329211,0.0
3731,0.04985736214462268,0.0
3732,0.04561170082510271,0.0
3733,0.07478976730035583,0.0
3734,3.5519412163707793,0.0
3735,6.157873155610394,0.0
3736,-2.6204778423203545,0.0
3737,1.0718426378247974,0.0
3738,-0.36659866702249677,0.0
3739,0.2018743462253003,0.0
3740,0.029775851148080824,0.0
3741,0.025015171947790737,0.0
3742,-0.040302536016634874,0.0
3743,-0.0346475532149286,0.0
3744,0.04859604436830807,0.0
3745,-0.04423794393918137,0.0
3746,0.08009533636057159,0.0
3747,0.027279584464765128,0.0
3748,0.1378145516897319,0.0
3749,-0.0016871423665233837,0.0
3750,0.6051466173474118,0.0
3751,5.70631319636682,0.0
3752,3.3397487113286775,0.0
3753,-2.658768259804876,0.0
3754,1.5463609459929837,0.0
3755,-0.6898945718870303,0.0
3756,0.36304654683992593,0.0
3757,-0.12204790420365322,0.0
3758,0.05394772067154577,0.0
3759,0.03217782373144999,0.0
3760,0.01854832495598861,0.0
3761,0.00995688609301814,0.0
3762,0.06386118399802947,0.0
3763,-0.018324436002907344,0.0
3764,0.008305654992390749,0.0
3765,0.017959760105649508,0.0
3766,-0.036524796880466684,0.0
3767,1.6204707237750344,0.0
3768,7.0134408766445056,0.0
3769,-0.28064937115629995,0.0
3770,-0.8694100858571595,0.0
3771,0.7278867056459192,0.0
3772,-0.31612771418312124,0.0
3773,0.2234940056304829,0.0
3774,-0.05430850696893607,0.0
3775,-0.002129182760979731,0.0
3776,0.15318159755979682,0.0
3777,0.0503061858632433,0.0
3778,-0.06312881579468306,0.0
3779,0.10434821936874988,0.0
3780,0.07374261405509286,0.0
3781,0.06598388732135428,0.0
3782,0.07347320926947218,0.0
3783,0.09267619401504529,0.0
3784,3.4877575358034023,0.0
3785,6.190456948804923,0.0
3786,-2.7597942850217922,0.0
3787,1.046166977759222,0.0
3788,-0.347927774587169,0.0
3789,0.14490442898048753,0.0
3790,-0.16510121889763893,0.0
3791,0.1331238365752828,0.0
3792,0.004034692850392228,0.0
3793,0.06043510294049971,0.0
3794,0.04109753665813641,0.0
3795,0.0484422531715246,0.0
3796,-0.029432343479919187,0.0
3797,0.06238481049853817,0.0
3798,0.05875837393553483,0.0
3799,0.048251349874434205,0.0
3800,0.6283785504649633,0.0
3801,5.762511671533501,0.0
3802,3.5359770541156212,0.0
3803,-2.52137737225242,0.0
3804,1.7783922095593452,0.0
3805,-0.6906690655504162,0.0
3806,0.46265170085179597,0.0
3807,0.07944748484016567,0.0
3808,0.20227082096325527,0.0
3809,0.10530011528821043,0.0
3810,0.09666157128104066,0.0
3811,-0.006240153306750387,0.0
3812,0.12868381045730817,0.0
3813,0.09191001849558811,0.0
3814,-0.024176656170248327,0.0
3815,0.11404417328879815,0.0
3816,0.0276089937693305,0.0
3817,1.7686112515964094,0.0
3818,6.902409807062482,0.0
3819,-0.16388566221277762,0.0
3820,-0.7961728815850446,0.0
3821,0.775191546460627,0.0
3822,-0.2326021795958612,0.0
3823,0.21158175013947514,0.0
3824,-0.002274525551615506,0.0
3825,0.17696067875087912,0.0
3826,-0.004344932566540435,0.0
3827,0.022273951648417167,0.0
3828,0.10903043955760318,0.0
3829,0.09702636841225745,0.0
3830,0.06431565432098144,0.0
3831,-0.010846727136842378,0.0
3832,-0.026460830897631703,0.0
3833,0.16446012509593388,0.0
3834,3.650165069108014,0.0
3835,6.189824448471194,0.0
3836,-2.735794162102876,0.0
3837,1.0682798301371383,0.0
3838,-0.3185975540942792,0.0
3839,0.18805038041094452,0.0
3840,-0.014985864171844367,0.0
3841,0.12900120054701752,0.0
3842,0.12949970946177444,0.0
3843,0.06033149484152544,0.0
3844,0.0778341612631214,0.0
3845,0.013608296967280838,0.0
3846,0.05204803015207956,0.0
3847,-0.028630077843538715,0.0
3848,0.08922809052998312,0.0
3849,0.025542793698826408,0.0
3850,0.6215929203932309,0.0
3851,5.675985108206265,0.0
3852,3.3954724514439896,0.0
3853,-2.6010707863307463,0.0
3854,1.6181633929973678,0.0
3855,-0.8107117440560964,0.0
3856,0.40992040650028977,0.0
3857,-0.09901266756670624,0.0
3858,0.12036887505230615,0.0
3859,0.0932894209147794,0.0
3860,0.11650500746336975,0.0
3861,0.09002648049945386,0.0
3862,0.11003750301701129,0.0
3863,0.05463408885666426,0.0
3864,0.17743105177404947,0.0
3865,0.14689169439283184,0.0
3866,0.015403276435868606,0.0
3867,1.7330189489072416,0.0
3868,7.026970010861889,0.0
3869,-0.1502215503289281,0.0
3870,-0.7920899785854639,0.0
3871,0.8110247092454071,0.0
3872,-0.2417725511955709,0.0
3873,0.31901459588931624,0.0
3874,-0.03199860305418465,0.0
3875,0.032727687005832375,0.0
3876,-0.016493484932313188,0.0
3877,0.06986917957457442,0.0
3878,0.17062275948989372,0.0
3879,0.02833827861723543,0.0
3880,0.013660885749018005,0.0
3881,0.10310901104497824,0.0
3882,0.06756992603336218,0.0
3883,0.17135920023435572,0.0
3884,3.665621374261572,0.0
3885,6.261472337615172,0.0
3886,-2.7739087146256387,0.0
3887,1.0796892454507443,0.0
3888,-0.4073955818073575,0.0
3889,0.25787724699934145,0.0
3890,0.040226113258734375,0.0
3891,0.1102907243126534,0.0
3892,0.04551463462856738,0.0
3893,0.09499957074300636,0.0
3894,0.018786218559902285,0.0
3895,0.07736600932729877,0.0
3896,0.14678328716761274,0.0
3897,0.10690147184899922,0.0
3898,0.02985457386195421,0.0
3899,0.059133008336927945,0.0
3900,0.6905888261782773,0.0
3901,5.759020128327777,0.0
3902,3.341458448710133,0.0
3903,-2.642023855532094,0.0
3904,1.5879791668871608,0.0
3905,-0.7044777352153291,0.0
3906,0.4052451182062785,0.0
3907,-0.08830696189032447,0.0
3908,0.1166822243440411,0.0
3909,0.034656133913909065,0.0
3910,0.06944865965313426,0.0
3911,0.014288157207127367,0.0
3912,0.10329379108840027,0.0
3913,-0.06254476014602935,0.0
3914,0.11061096024801989,0.0
3915,0.04139860914796092,0.0
3916,0.09194776657120923,0.0
3917,1.6964486704064645,0.0
3918,6.879278003447048,0.0
3919,-0.22201742831591326,0.0
3920,-0.8672323877184399,0.0
3921,0.8962062449666857,0.0
3922,-0.2873921940368095,0.0
3923,0.1731656249069205,0.0
3924,0.10672343008965542,0.0
3925,0.07285882456288728,0.0
3926,0.08802559995423229,0.0
3927,0.1459838020660719,0.0
3928,0.14348886156301377,0.0
3929,0.03882962500003817,0.0
3930,0.009141550247607377,0.0
3931,0.08674934122446229,0.0
3932,-0.00518047245103824,0.0
3933,0.16156619141217504,0.0
3934,3.5714240100034513,0.0
3935,6.27569020868696,0.0
3936,-2.669242716888801,0.0
3937,1.1076911984278852,0.0
3938,-0.33892961879539724,0.0
3939,0.11051411825570977,0.0
3940,-0.029016603131105663,0.0
3941,0.0675641426891689,0.0
3942,-0.0026954676593901952,0.0
3943,0.0036647068537328797,0.0
3944,0.06113397553758994,0.0
3945,0.010719083584405986,0.0
3946,0.025976776530237784,0.0
3947,0.05556033105697233,0.0
3948,0.00885686861701223,0.0
3949,0.08157780456046723,0.0
3950,0.6191470900321244,0.0
3951,5.685175845671294,0.0
3952,3.235998973300044,0.0
3953,-2.615222112016221,0.0
3954,1.6155332061010779,0.0
3955,-0.8126499785580841,0.0
3956,0.508973283947539,0.0
3957,-0.03718510590719458,0.0
3958,0.0041987946657498915,0.0
3959,0.016455223645782245,0.0
3960,-0.00042234055512764546,0.0
3961,-0.01794961944546908,0.0
3962,0.12363658086618666,0.0
3963,0.06774057132313988,0.0
3964,0.044921123476292006,0.0
3965,-0.027110289459177962,0.0
3966,0.0020220148321525647,0.0
3967,1.7171866746921627,0.0
3968,6.923338757101851,0.0
3969,-0.2996926595222514,0.0
3970,-0.846746182475941,0.0
3971,0.8199326139711673,0.0
3972,-0.3452070846703549,0.0
3973,0.27378056016652635,0.0
3974,0.02481237810298232,0.0
3975,0.0058326618583144085,0.0
3976,-0.007689859673487034,0.0
3977,0.034354491434547114,0.0
3978,0.01295156590079374,0.0
3979,0.022670560804283355,0.0
3980,0.06388388548658891,0.0
3981,0.05689466158105998,0.0
3982,0.005346504617319888,0.0
3983,0.16092110259689932,0.0
3984,3.694198337818646,0.0
3985,6.171374924301566,0.0
3986,-2.7572612746553538,0.0
3987,1.184957088821558,0.0
3988,-0.305641028041457,0.0
3989,0.1543407568335211,0.0
3990,-0.13521288942688423,0.0
3991,0.018122747603670525,0.0
3992,0.06363152155162231,0.0
3993,-0.11731495043244994,0.0
3994,-0.009686734063133105,0.0
3995,-0.05793601875997645,0.0
3996,0.02052128274638556,0.0
3997,-0.009777948338132184,0.0
3998,0.08591844401123314,0.0
3999,-0.008641265259675764,0.0
4000,0.59994877716807,0.0
4001,5.70260774088131,0.0
4002,3.2555645126053196,0.0
4003,-2.694535699246847,0.0
4004,1.5346999951715758,0.0
4005,-0.705450177570307,0.0
4006,0.3431849040597787,0.0
4007,-0.0791217043839437,0.0
4008,0.07371077674271381,0.0
4009,-0.06764153710636303,0.0
4010,0.04274879950023947,0.0
4011,0.09299926229734416,0.0
4012,-0.027735023751289514,0.0
4013,0.03108219290205161,0.0
4014,-0.03161854306130024,0.0
4015,-0.06332506166424931,0.0
4016,-0.009339910395236413,0.0
4017,1.6789776659646964,0.0
4018,6.895110190012991,0.0
4019,-0.4027375026815649,0.0
4020,-0.8658588815802593,0.0
4021,0.6579237789208331,0.0
4022,-0.40903873850736405,0.0
4023,0.11841710043091777,0.0
4024,0.028565159751620856,0.0
4025,-0.026432464020364102,0.0
4026,-0.03951859273845407,0.0
4027,0.0018893201451697095,0.0
4028,-0.1685021895714404,0.0
4029,0.09204957011480315,0.0
4030,-0.010768429841623845,0.0
4031,-0.09253153712664097,0.0
4032,-0.028526892969522426,0.0
4033,0.08376213422765308,0.0
4034,3.6305490556562523,0.0
4035,6.09115005304105,0.0
4036,-2.800334382166431,0.0
4037,1.191723769138909,0.0
4038,-0.43660847578174283,0.0
4039,0.1314353853492052,0.0
4040,-0.19547590785824895,0.0
4041,-0.0407909706314641,0.0
4042,-0.0914518782044996,0.0
4043,-0.07356882307659494,0.0
4044,-0.07223662892056379,0.0
4045,-0.07572714899915181,0.0
4046,-0.1665788302973405,0.0
4047,-0.1739193620051969,0.0
4048,-0.09889336787348943,0.0
4049,-0.018010132746499256,0.0
4050,0.593737212107483,0.0
4051,5.6274558580250815,0.0
4052,3.2085636149630465,0.0
4053,-2.7633043366604104,0.0
4054,1.51409885338775,0.0
4055,-0.806114051081329,0.0
4056,0.2867407253570528,0.0
4057,-0.2009336182581112,0.0
4058,-0.015945479454209127,0.0
4059,0.046256292657330514,0.0
4060,-0.0975289799034227,0.0
4061,-0.025735861701259938,0.0
4062,-0.02403075501387705,0.0
4063,0.0032531530317347077,0.0
4064,0.04684789134685082,0.0
4065,-0.011201350942067506,0.0
4066,0.07501402448180439,0.0
4067,1.6155310647965133,0.0
4068,6.976192573633618,0.0
4069,-0.37627856389347647,0.0
4070,-0.7613870535733914,0.0
4071,0.7198746902262769,0.0
4072,-0.3810586965767459,0.0
4073,0.06276780083879346,0.0
4074,0.020733570812766396,0.0
4075,0.04199618920941876,0.0
4076,0.09967318274802661,0.0
4077,-0.06886966884373696,0.0
4078,-0.05215457706328822,0.0
4079,-0.023956516154293922,0.0
4080,-0.019747223335852902,0.0
4081,-0.03996671126777942,0.0
4082,0.03075460602793358,0.0
4083,0.14821954440489402,0.0
4084,3.5601754639143577,0.0
4085,6.149268406699519,0.0
4086,-2.7606503262305635,0.0
4087,1.1270219763478297,0.0
4088,-0.5702206941859911,0.0
4089,0.11968538893093238,0.0
4090,0.04828803478384015,0.0
4091,-0.012186688468550724,0.0
4092,0.054130905786005934,0.0
4093,0.09393207967309479,0.0
4094,0.005517379875079406,0.0
4095,-0.01524900506026842,0.0
4096,0.02752805461571224,0.0
4097,0.026169456228284538,0.0
4098,0.0004963993329655386,0.0
4099,0.005199944688168791,0.0
4100,0.56190525061007,0.0
4101,5.738477616924349,0.0
4102,3.2906254884549484,0.0
4103,-2.689496299688317,0.0
4104,1.4627787869641236,0.0
4105,-0.7034037145499739,0.0
4106,0.40827492192916115,0.0
4107,-0.0756875390333494,0.0
4108,0.03637233008439441,0.0
4109,0.010429561697534808,0.0
4110,0.05196345177047488,0.0
4111,0.013246961222049354,0.0
4112,-0.029275313060667114,0.0
4113,0.019359647958602604,0.0
4114,0.16135622326703858,0.0
4115,0.019032017124607902,0.0
4116,0.016400151380653427,0.0
4117,1.5868534366622082,0.0
4118,6.850860157308429,0.0
4119,-0.46042208331889123,0.0
4120,-0.8073066993237565,0.0
4121,0.701773920007953,0.0
4122,-0.3226936014375029,0.0
4123,0.23494604617360365,0.0
4124,0.018391098428998692,0.0
4125,0.07555868116733061,0.0
4126,0.07771800567721636,0.0
4127,0.018100362359723135,0.0
4128,0.023875842281459676,0.0
4129,-0.05314524260879151,0.0
4130,0.002764272908506095,0.0
4131,-0.049786469456724214,0.0
4132,0.019235166448901154,0.0
4133,0.12253260515056463,0.0
4134,3.5394910302574707,0.0
4135,6.1595599598098705,0.0
4136,-2.839345417280286,0.0
4137,1.1274665677993676,0.0
4138,-0.36822854510289704,0.0
4139,0.1321321767925579,0.0
4140,0.01633710439272054,0.0
4141,-0.04376998013614543,0.0
4142,-0.024519567548346645,0.0
4143,-0.08281630324675673,0.0
4144,0.004398332545293829,0.0
4145,-0.01262835406494939,0.0
4146,-0.03370446358520108,0.0
4147,0.026870231648968203,0.0
4148,-0.0010223871109791092,0.0
4149,-0.09411581537841958,0.0
4150,0.697802006931139,0.0
