timestamp,value-0,is_anomaly
0,0.2389379630283245,0.0
1,4.518844007247526,0.0
2,5.037789171319841,0.0
3,-3.117743808513,0.0
4,1.5093044431664646,0.0
5,-0.7482712024304026,0.0
6,0.3272635028538157,0.0
7,-0.09725621430279079,0.0
8,0.04345585852336064,0.0
9,-0.0724002985730052,0.0
10,0.01594271073955087,0.0
11,-0.030895893036031144,0.0
12,-0.017980769240824167,0.0
13,0.013584081518223209,0.0
14,-0.0012330889361916435,0.0
15,0.02012858300832445,0.0
16,-0.05059009634799816,0.0
17,1.0325186759156766,0.0
18,6.388062814399618,0.0
19,1.5103647463581196,0.0
20,-1.9341474522398237,0.0
21,1.247024068586899,0.0
22,-0.6473304795278001,0.0
23,0.3094785302771036,0.0
24,-0.05541114920661646,0.0
25,0.06702925039068144,0.0
26,-0.050632432089772236,0.0
27,-0.010886017960193855,0.0
28,0.004424758002216007,0.0
29,0.09493977660736344,0.0
30,0.09486642919613235,0.0
31,-0.07353418653135907,0.0
32,-0.08708329110369256,0.0
33,0.02543018482386848,0.0
34,2.4838278834473577,0.0
35,6.782509362234558,0.0
36,-1.8336396422201684,0.0
37,0.1693360046977993,0.0
38,0.07674204756441648,0.0
39,-0.1767165379848136,0.0
40,-0.07569327713704976,0.0
41,-0.10556586718342707,0.0
42,-0.019622400722443895,0.0
43,0.010934071731143212,0.0
44,0.013326575019979064,0.0
45,-0.023582284165653774,0.0
46,0.0035622651680150908,0.0
47,0.01996146612366544,0.0
48,0.04763467947008791,0.0
49,0.0312661779425219,0.0
50,0.357579997594251,0.0
51,4.6212940537890965,0.0
52,5.028907456316448,0.0
53,-2.898872128260735,0.0
54,1.685820531656747,0.0
55,-0.6947127846659009,0.0
56,0.38115307590165165,0.0
57,-0.15049417549918287,0.0
58,0.027002398288217697,0.0
59,-0.04146958660393355,0.0
60,-0.05755473683501141,0.0
61,0.00425885832776746,0.0
62,-0.023504307024952036,0.0
63,-0.029631195972713558,0.0
64,0.040124223397823525,0.0
65,0.05780072125825204,0.0
66,0.002990047709982617,0.0
67,1.0243318760938496,0.0
68,6.466499446892705,0.0
69,1.571691695668804,0.0
70,-1.9460713746328662,0.0
71,1.2147820627905237,0.0
72,-0.6109608635219257,0.0
73,0.22986247754600056,0.0
74,-0.16529883998220352,0.0
75,-0.049109979379810535,0.0
76,-0.07785412457738888,0.0
77,-0.005154201268429224,0.0
78,0.056685231350580845,0.0
79,-0.09169032561313764,0.0
80,-0.04179053589905804,0.0
81,-0.019825355910956705,0.0
82,-0.026175986042370532,0.0
83,-0.06619309033464023,0.0
84,2.4106292751496063,0.0
85,6.822726684091399,0.0
86,-1.778995558877117,0.0
87,0.1280002556963701,0.0
88,0.07751512291711495,0.0
89,-0.11170144492990172,0.0
90,-0.009910343224882337,0.0
91,-0.06123581349625367,0.0
92,-0.0674579551803694,0.0
93,-0.02879257921825487,0.0
94,-0.05515037684208075,0.0
95,-0.050969565543947236,0.0
96,0.06009826323230465,0.0
97,0.0864880452896883,0.0
98,0.029817575289710768,0.0
99,-0.06387504877823637,0.0
100,0.38479662554479954,0.0
101,4.629068012947764,0.0
102,4.962374844743431,0.0
103,-2.958904766716158,0.0
104,1.548933817739798,0.0
105,-0.7235068777140932,0.0
106,0.44409418695911507,0.0
107,-0.10712796800289975,0.0
108,0.07987683298028167,0.0
109,0.08105415815054565,0.0
110,-0.03626722484696505,0.0
111,-0.04224696150541758,0.0
112,0.05477073711242307,0.0
113,0.07222517651741403,0.0
114,-0.015113265990867673,0.0
115,0.01542744669237436,0.0
116,0.06515184062164436,0.0
117,1.003389034053519,0.0
118,6.531092699255709,0.0
119,1.507498223146487,0.0
120,-1.8240791436956694,0.0
121,1.3463446828645422,0.0
122,-0.5941893415453756,0.0
123,0.30402867047118914,0.0
124,-0.09557609765076491,0.0
125,0.019459362768191272,0.0
126,0.0017561442065437728,0.0
127,0.034611116276969556,0.0
128,0.04641672181014256,0.0
129,0.031144876095241105,0.0
130,0.0668771366072568,0.0
131,0.013776583669725687,0.0
132,0.04716995525820508,0.0
133,0.0011976744096858088,0.0
134,2.6070061416801,0.0
135,6.8590841252397245,0.0
136,-1.7832372689631812,0.0
137,0.2051884916904832,0.0
138,0.17717176415059535,0.0
139,-0.12719223592444695,0.0
140,0.05462304906021838,0.0
141,0.03993935204178564,0.0
142,-0.008730688131234815,0.0
143,0.0423572725591825,0.0
144,0.06997099975935366,0.0
145,-0.009406003786682958,0.0
146,-0.0037190626292474445,0.0
147,-0.025194394977790184,0.0
148,-0.03774447109450958,0.0
149,-0.016825756250226663,0.0
150,0.3132046639476665,0.0
151,4.659914156532414,0.0
152,5.032379205178835,0.0
153,-2.9037583582915354,0.0
154,1.692959244360056,0.0
155,-0.8202318540838341,0.0
156,0.3862867340982349,0.0
157,-0.016068041226639157,0.0
158,0.10821757294210924,0.0
159,0.05072404026692366,0.0
160,0.09002445519596389,0.0
161,0.1087638729034822,0.0
162,0.020216160427356737,0.0
163,0.150202128512006,0.0
164,0.016505449605280303,0.0
165,0.014586803551020766,0.0
166,-0.010916118366589206,0.0
167,1.1158345390353148,0.0
168,6.450251119079091,0.0
169,1.5389910882315905,0.0
170,-1.8818705768099846,0.0
171,1.2462689225473966,0.0
172,-0.6088801723694752,0.0
173,0.40277082446419654,0.0
174,-0.0035359848298953597,0.0
175,-0.024566405196417437,0.0
176,0.004652387991661018,0.0
177,0.05028809390369644,0.0
178,-0.0005373302337433675,0.0
179,0.08054429901425686,0.0
180,0.0036610185696621285,0.0
181,0.051273788572814505,0.0
182,-0.0060081390637724275,0.0
183,0.05837167366682116,0.0
184,2.5649448620687245,0.0
185,6.830083805567399,0.0
186,-1.8380085261967005,0.0
187,0.2577243679085985,0.0
188,0.12470674578052694,0.0
189,-0.07724999920025905,0.0
190,0.03630155774700339,0.0
191,0.05857200581973495,0.0
192,0.10011410600248255,0.0
193,-0.09898986712434629,0.0
194,0.06901933021916518,0.0
195,0.11196069504104157,0.0
196,0.07269136034094942,0.0
197,0.028635859638718588,0.0
198,0.02139096048940458,0.0
199,0.06755372965422855,0.0
200,0.35151149247910957,0.0
201,4.6591923647225855,0.0
202,5.114470367439813,0.0
203,-2.9396084765271593,0.0
204,1.5669189477890921,0.0
205,-0.699336545444966,0.0
206,0.30656708593212306,0.0
207,-0.06059966098906071,0.0
208,0.02838521845790136,0.0
209,-0.012799355350599714,0.0
210,-0.014003370148297004,0.0
211,0.07478337431344362,0.0
212,-0.008194751505226201,0.0
213,-0.029802060562692766,0.0
214,0.0799789010264757,0.0
215,0.022067316329450044,0.0
216,0.04642203088805956,0.0
217,1.0726613068711641,0.0
218,6.557074788744728,0.0
219,1.6688956756609266,0.0
220,-1.8980873066556103,0.0
221,1.2401380367050285,0.0
222,-0.6051678966419489,0.0
223,0.3097678448343163,0.0
224,-0.10190902512840697,0.0
225,-0.008268432779643113,0.0
226,0.043953656753825364,0.0
227,0.008702354822894814,0.0
228,0.03083669179256046,0.0
229,-0.04547502857559051,0.0
230,-0.00761332711926024,0.0
231,0.03544984132720163,0.0
232,-0.041963203399185044,0.0
233,0.021614006282369848,0.0
234,2.4924814286836954,0.0
235,6.918965997321668,0.0
236,-1.9222171767697867,0.0
237,0.27344818694123685,0.0
238,0.18423938988764763,0.0
239,-0.17454974728522338,0.0
240,0.12344255102801158,0.0
241,0.03473753374447017,0.0
242,0.011706785581031505,0.0
243,0.06014465445600726,0.0
244,-0.013612417766757,0.0
245,0.09082127989899408,0.0
246,0.039874540698348934,0.0
247,0.13139407860012908,0.0
248,0.08972071690290648,0.0
249,0.04867233238499318,0.0
250,0.41361221604716536,0.0
251,4.795428986347072,0.0
252,4.886012545442859,0.0
253,-2.9984271552039337,0.0
254,1.6152213990910718,0.0
255,-0.6695231884778644,0.0
256,0.3655582133459419,0.0
257,-0.021897932520648797,0.0
258,0.024659655693746833,0.0
259,-0.050051182630213,0.0
260,0.01909259184805042,0.0
261,-0.012460670287206915,0.0
262,0.004419548055811491,0.0
263,0.019262913895467523,0.0
264,-0.10966300428835221,0.0
265,0.028597741089834802,0.0
266,-0.014542866074084176,0.0
267,0.9741378498742288,0.0
268,6.572327160033402,0.0
269,1.4552799785258477,0.0
270,-1.8527676723844364,0.0
271,1.160643945602043,0.0
272,-0.626719692193875,0.0
273,0.23207057426908306,0.0
274,-0.09840875831810744,0.0
275,0.016201766155375344,0.0
276,0.058123544928193355,0.0
277,-0.007658067823202721,0.0
278,-0.06369466668337377,0.0
279,0.07543330411631406,0.0
280,-0.003788507232422975,0.0
281,-0.001485429860565388,0.0
282,0.028443579685873556,0.0
283,0.1484167936630414,0.0
284,2.525284816917131,0.0
285,6.897174790053061,0.0
286,-1.74933031295227,0.0
287,0.17070344190248143,0.0
288,0.18935551506993087,0.0
289,-0.09711485131862163,0.0
290,0.06348103285160937,0.0
291,0.07787138828678307,0.0
292,0.0374626337867287,0.0
293,0.1404548259059021,0.0
294,0.053862387333357686,0.0
295,0.04108506554035476,0.0
296,0.0696758964165302,0.0
297,-0.055512440766414047,0.0
298,0.05521636339290401,0.0
299,0.08169353732903818,0.0
300,0.3304186399940416,0.0
301,4.6411294098438,0.0
302,4.928185243989509,0.0
303,-3.0134252654469194,0.0
304,1.6049456075693587,0.0
305,-0.7369684936170249,0.0
306,0.31140777202801817,0.0
307,-0.0806539041516168,0.0
308,0.03998639525288313,0.0
309,0.1255187223659009,0.0
310,-0.06308894975202789,0.0
311,-0.10935968417359283,0.0
312,-0.07609428888456031,0.0
313,-0.01744305144696528,0.0
314,-0.1336143293387566,0.0
315,-0.0318038884174756,0.0
316,-0.005276914163781673,0.0
317,0.9935837240816303,0.0
318,6.429032336872793,0.0
319,1.4426570990799832,0.0
320,-1.8819138346517235,0.0
321,1.1810686237462715,0.0
322,-0.5555447260013946,0.0
323,0.29384229488198604,0.0
324,-0.15414818857624166,0.0
325,-0.027669433878642104,0.0
326,0.03380365200280151,0.0
327,0.02700897092945819,0.0
328,-0.06277229406033304,0.0
329,-0.02751029971881592,0.0
330,-0.03672882807408117,0.0
331,-0.036360711512041156,0.0
332,0.007355821677337223,0.0
333,0.03764292870009121,0.0
334,2.5384488176636424,0.0
335,6.785048054650326,0.0
336,-1.9551996515675742,0.0
337,0.2826933101916811,0.0
338,0.17175808300853218,0.0
339,-0.13020556299675728,0.0
340,-0.03147428877086673,0.0
341,-0.000722300969380793,0.0
342,0.036860228460125405,0.0
343,-0.03197762231895134,0.0
344,0.04829506382109075,0.0
345,-0.04594774471177391,0.0
346,0.0033797109934132364,0.0
347,-0.002686119608051497,0.0
348,0.010246098983067331,0.0
349,0.04900305771212009,0.0
350,0.19547242065886739,0.0
351,4.752061857898713,0.0
352,4.99878317354285,0.0
353,-2.9783666688988477,0.0
354,1.5776010947426953,0.0
355,-0.7839608684341216,0.0
356,0.33460750078234264,0.0
357,-0.07201489642522642,0.0
358,-0.009139775388127241,0.0
359,-0.06294368196499325,0.0
360,-0.1092359251246386,0.0
361,0.043866481440519876,0.0
362,-0.07086889139500953,0.0
363,0.0018775019092008545,0.0
364,0.09900790917968857,0.0
365,0.013777088501170933,0.0
366,0.004535703853964551,0.0
367,0.9337464398387201,0.0
368,6.493552958290746,0.0
369,1.4360011837633389,0.0
370,-1.7389433427868162,0.0
371,1.2374367759527694,0.0
372,-0.7029944678865077,0.0
373,0.3133436647367197,0.0
374,-0.050964153992229866,0.0
375,0.042556678920931595,0.0
376,0.041054254374942825,0.0
377,-0.03134939680469419,0.0
378,0.0675915073224114,0.0
379,0.010892354373147815,0.0
380,0.04530247659955157,0.0
381,-0.07478776233540647,0.0
382,0.028057566024527227,0.0
383,0.04530752910808078,0.0
384,2.614325665646938,0.0
385,6.823715837576741,0.0
386,-1.9214423066309843,0.0
387,0.26299728391276,0.0
388,0.09641444520526465,0.0
389,-0.08848682248705146,0.0
390,0.0278632344051968,0.0
391,-0.07987256390729765,0.0
392,0.045648196549402144,0.0
393,-0.006180958513821374,0.0
394,0.027044262687675076,0.0
395,0.09391933420891939,0.0
396,-0.04240253618886408,0.0
397,0.0013963575007066784,0.0
398,0.1171245629633281,0.0
399,0.011924037532687018,0.0
400,0.3665946420239525,0.0
401,4.777760741426333,0.0
402,4.859566166648216,0.0
403,-2.8826322802105437,0.0
404,1.6870854529971,0.0
405,-0.6902964474607648,0.0
406,0.22257354448010358,0.0
407,-0.10915769383517783,0.0
408,0.05712481969669143,0.0
409,0.048662031069263784,0.0
410,0.07192496742255675,0.0
411,-0.00918964400753539,0.0
412,-0.028456577172473175,0.0
413,0.028565182970047488,0.0
414,-0.04755451987144318,0.0
415,-0.0597524362103905,0.0
416,-0.030979231748898016,0.0
417,1.0884023750226735,0.0
418,6.578515185130646,0.0
419,1.3747024915031183,0.0
420,-1.8273841321816993,0.0
421,1.2629208593930337,0.0
422,-0.6088819402046207,0.0
423,0.25559222945047044,0.0
424,-0.031163580903896523,0.0
425,-0.022433875453030563,0.0
426,-0.07005994213929356,0.0
427,-0.04676938379545367,0.0
428,0.008406399614651517,0.0
429,-0.06125221108919345,0.0
430,0.004488473719429753,0.0
431,-0.03983609681722147,0.0
432,-0.0167216036122906,0.0
433,0.09172684298674519,0.0
434,2.599981578385981,0.0
435,6.860330186309568,0.0
436,-1.8360259450174594,0.0
437,0.2236443108846165,0.0
438,0.12842716421471473,0.0
439,-0.10824596176870563,0.0
440,0.032258960008989195,0.0
441,-0.03589177135274721,0.0
442,0.08389492426914891,0.0
443,-0.02794831049798696,0.0
444,-0.06386601182976394,0.0
445,-0.005773121170155864,0.0
446,0.03100610562797547,0.0
447,0.017647473607493983,0.0
448,-0.04415553425284856,0.0
449,0.029607479013559302,0.0
450,0.2979379667911568,0.0
451,4.601960366368413,0.0
452,4.834111591759407,0.0
453,-3.038099224025468,0.0
454,1.567181082926095,0.0
455,-0.771232287490501,0.0
456,0.209482425418344,0.0
457,-0.11224850402576281,0.0
458,0.05262987638062909,0.0
459,-0.045462808831903206,0.0
460,0.04134303811070571,0.0
461,0.02417911518213718,0.0
462,-0.028618816721213615,0.0
463,0.06793798048886986,0.0
464,-0.03931570842878851,0.0
465,-0.01325068929650162,0.0
466,-0.03226873229826925,0.0
467,1.0034560489137403,0.0
468,6.4586537702405895,0.0
469,1.4184629807539586,0.0
470,-1.8291630310556175,0.0
471,1.1562402053193452,0.0
472,-0.6281781690706729,0.0
473,0.3010886998880077,0.0
474,-0.1311013971467987,0.0
475,0.032010324365324895,0.0
476,-0.09196837797224079,0.0
477,-0.10440341498427846,0.0
478,-0.09240764810057812,0.0
479,-0.03783572891995697,0.0
480,-0.049799110062731744,0.0
481,-0.07909355008039476,0.0
482,-0.09703105370064832,0.0
483,0.004311286321336127,0.0
484,2.5039237472425726,0.0
485,6.828840047288235,0.0
486,-1.9394044059608848,0.0
487,0.18879115186541412,0.0
488,0.06147327743969555,0.0
489,-0.10220196737665105,0.0
490,-0.09582300537170507,0.0
491,-0.0025161746888335487,0.0
492,0.08322372299129452,0.0
493,-0.062204023232087846,0.0
494,0.006622472744782469,0.0
495,-0.06000956963951063,0.0
496,-0.032385399717729364,0.0
497,-0.10240052213286986,0.0
498,-0.01353992265317814,0.0
499,-0.052591425832941574,0.0
500,0.15252134926553274,0.0
501,4.677510525241908,0.0
502,4.7549090650560935,0.0
503,-3.056647908919099,0.0
504,1.5739607805007074,0.0
505,-0.8157775364353613,0.0
506,0.2575217980874401,0.0
507,-0.17446907772144862,0.0
508,-0.026753464777182965,0.0
509,-0.052385063135259854,0.0
510,-0.01121330983875677,0.0
511,0.050948922641146095,0.0
512,0.0476289274171752,0.0
513,-0.03193618728728431,0.0
514,0.028244980601892407,0.0
515,0.0017892383778798002,0.0
516,-0.07301055669223053,0.0
517,1.0151725726250387,0.0
518,6.459252538448666,0.0
519,1.254313374762593,0.0
520,-1.8805183022861582,0.0
521,1.1887104446507903,0.0
522,-0.5978005739395471,0.0
523,0.2648610711416983,0.0
524,-0.1526757463369875,0.0
525,-0.0449869085111259,0.0
526,-0.05684053014050373,0.0
527,0.05849058367082438,0.0
528,-0.054027552926451075,0.0
529,-0.00790484683803305,0.0
530,-0.07646120956981636,0.0
531,0.02986580721560174,0.0
532,0.03868673967178473,0.0
533,0.05794892730973949,0.0
534,2.7061003682842837,0.0
535,6.780563300840595,0.0
536,-2.0398100093560094,0.0
537,0.37653128299617755,0.0
538,0.14476151967513895,0.0
539,-0.05944495036676932,0.0
540,0.06517258125616715,0.0
541,-0.07151649726683355,0.0
542,0.04690778050015141,0.0
543,0.08083599160709325,0.0
544,0.09239024813184134,0.0
545,0.1352128923569323,0.0
546,0.04420981867689385,0.0
547,0.08561257698462853,0.0
548,0.05175310814096462,0.0
549,-0.0171360178493596,0.0
550,0.3475948144756843,0.0
551,4.840102284953512,0.0
552,4.84819493047272,0.0
553,-3.009525247206774,0.0
554,1.5642554970183609,0.0
555,-0.6009715132766286,0.0
556,0.37527722158259236,0.0
557,-0.0749257289675305,0.0
558,0.06438406191488918,0.0
559,0.0027055171564730196,0.0
560,0.0429269854886029,0.0
561,0.043281992997420624,0.0
562,-0.04181019846158603,0.0
563,-0.07910200860350527,0.0
564,0.06727498925843078,0.0
565,0.0045972216829825024,0.0
566,-0.022898608456613054,0.0
567,1.105271754567751,0.0
568,6.653393082328932,0.0
569,1.3945048851046171,0.0
570,-1.8085703104298587,0.0
571,1.2029864392510266,0.0
572,-0.4781932014711786,0.0
573,0.3278536330003645,0.0
574,-0.0051237516565043155,0.0
575,0.08488997917687721,0.0
576,0.1542236898138734,0.0
577,-0.01509060895954882,0.0
578,0.04983116378439197,0.0
579,0.1088527057693475,0.0
580,0.03721382932880088,0.0
581,0.15568160705893153,0.0
582,0.22424660519066558,0.0
583,0.05334094122405947,0.0
584,2.772675283203633,0.0
585,6.90834696855395,0.0
586,-1.7989342987961916,0.0
587,0.40875497266731237,0.0
588,0.15017421176642756,0.0
589,-0.03949167101561593,0.0
590,0.1400603996377358,0.0
591,0.13492218757049443,0.0
592,0.04789725302520784,0.0
593,0.15171245022030777,0.0
594,0.06833267745874902,0.0
595,0.22165580796408604,0.0
596,0.19524838843688436,0.0
597,0.20702019165388644,0.0
598,0.15048909377451403,0.0
599,0.17736220563303168,0.0
600,0.5469185073438495,0.0
601,4.8369695917227284,0.0
602,5.041430554287873,0.0
603,-2.773274467593078,0.0
604,1.6594642438933471,0.0
605,-0.6449379999018896,0.0
606,0.5009813533432167,0.0
607,0.04125785300505789,0.0
608,0.21908931022178108,0.0
609,0.20202616744435897,0.0
610,0.17447128321112806,0.0
611,0.10615713827673796,0.0
612,0.1743138708156936,0.0
613,0.03376613740178293,0.0
614,0.08996005371378703,0.0
615,0.18770195781521484,0.0
616,0.015323632138527776,0.0
617,1.1524691520572732,0.0
618,6.631635927982458,0.0
619,1.3066222643231908,0.0
620,-1.652275338527919,0.0
621,1.2788622601084847,0.0
622,-0.5791522912910562,0.0
623,0.279511169042032,0.0
624,-0.012912925620432898,0.0
625,0.11296660323040272,0.0
626,0.14964987738306482,0.0
627,0.11142742832367938,0.0
628,0.046666336381024395,0.0
629,0.06692920155663923,0.0
630,0.09695979145646175,0.0
631,0.10404592946426289,0.0
632,0.08465655055618776,0.0
633,0.12181347711576253,0.0
634,2.8078645869200143,0.0
635,7.012929077804787,0.0
636,-1.8385072081403386,0.0
637,0.4637017676397759,0.0
638,0.154094304597126,0.0
639,0.019687248569594355,0.0
640,0.15117000752520066,0.0
641,0.15354274624965378,0.0
642,0.17350781642105695,0.0
643,0.11825450043645444,0.0
644,0.18106888374283692,0.0
645,0.001556805141972789,0.0
646,0.06498770448332084,0.0
647,0.15986033218558732,0.0
648,0.11492364346286708,0.0
649,0.07765125622809263,0.0
650,0.4732976886404978,0.0
651,4.867482418484344,0.0
652,4.907921068077027,0.0
653,-2.914016244753473,0.0
654,1.636153957712337,0.0
655,-0.6230852333660432,0.0
656,0.3613332053216073,0.0
657,0.011577224959831642,0.0
658,0.11004312578059734,0.0
659,0.14417008747142135,0.0
660,0.17215713858560008,0.0
661,0.13745563058836455,0.0
662,0.08295531978801851,0.0
663,0.12507856039829202,0.0
664,0.11865454174233755,0.0
665,-0.06425816301593351,0.0
666,0.12884317817872043,0.0
667,1.1915119612882707,0.0
668,6.532159182200738,0.0
669,1.3452267528117177,0.0
670,-1.7551604532564453,0.0
671,1.2622944845541768,0.0
672,-0.43633501434346267,0.0
673,0.32487463425049823,0.0
674,0.0214821356432738,0.0
675,0.10210472813849299,0.0
676,0.16976901419144633,0.0
677,0.03797673214413726,0.0
678,0.18911243015993393,0.0
679,0.22642856204338646,0.0
680,0.06456327800409992,0.0
681,0.13477027112338563,0.0
682,0.11649515013509204,0.0
683,0.15758083497787784,0.0
684,2.7278253309608513,0.0
685,6.889539352588537,0.0
686,-1.9516328882834704,0.0
687,0.5109674325888696,0.0
688,0.16324520929828598,0.0
689,-0.020416602319371188,0.0
690,0.14976050498851184,0.0
691,0.053512239853329396,0.0
692,0.04153376728300867,0.0
693,0.06304093776142204,0.0
694,0.01130540871795823,0.0
695,0.06993684564398799,0.0
696,0.02606468034683392,0.0
697,0.07863936223914483,0.0
698,0.06636361701962729,0.0
699,0.08321648084916462,0.0
700,0.336683528443671,0.0
701,4.856410923929434,0.0
702,4.819721883149389,0.0
703,-2.8970475825112016,0.0
704,1.5530927019793284,0.0
705,-0.7296376425596711,0.0
706,0.40953242646502463,0.0
707,-0.058247620339466406,0.0
708,0.09331513660072029,0.0
709,-0.014653575519827024,0.0
710,0.021279065434737614,0.0
711,0.07138622936869336,0.0
712,-0.005953950971045799,0.0
713,-0.01362969838232271,0.0
714,-0.005794672216233431,0.0
715,0.02980207088669847,0.0
716,-0.009655897982095086,0.0
717,1.1274643281310996,0.0
718,6.613180582875289,0.0
719,1.2713501354087615,0.0
720,-1.8067012604467696,0.0
721,1.18973027781684,0.0
722,-0.5851617829403685,0.0
723,0.29192980048247724,0.0
724,-0.07001730135369391,0.0
725,-0.03382240427948763,0.0
726,-0.045697531574329764,0.0
727,-0.04860048051325546,0.0
728,-0.05029924452007845,0.0
729,0.0756117131418224,0.0
730,0.006577803904937476,0.0
731,0.11294997933561315,0.0
732,0.03957103272954427,0.0
733,0.028571556384043916,0.0
734,2.6726773674522457,0.0
735,6.808264480485212,0.0
736,-2.0858483120781965,0.0
737,0.3242307981435737,0.0
738,-0.10599938077340115,0.0
739,-0.11239569102279258,0.0
740,-0.04428951388238751,0.0
741,-0.09669899050248049,0.0
742,-0.0793325425313324,0.0
743,0.028354960093823732,0.0
744,0.031720863649706166,0.0
745,-0.08125483514556134,0.0
746,-0.05593271778048727,0.0
747,-0.106226204107424,0.0
748,-0.04922591306533616,0.0
749,-0.045799654824520614,0.0
750,0.20516838137832738,0.0
751,4.792450388329369,0.0
752,4.697949245205278,0.0
753,-2.9241165498339172,0.0
754,1.535960880971459,0.0
755,-0.6907585367417199,0.0
756,0.2932136816908316,0.0
757,-0.09577510252873825,0.0
758,0.04742867336844804,0.0
759,-0.00534226027605441,0.0
760,-0.012219184616738269,0.0
761,0.025346594814085948,0.0
762,-0.05435451176413366,0.0
763,-0.015435195800812556,0.0
764,-0.09791294445580068,0.0
765,0.09337809819224951,0.0
766,-0.07121995738144958,0.0
767,1.087890569552659,0.0
768,6.55144113320708,0.0
769,1.0945579332370068,0.0
770,-1.7267347298661542,0.0
771,1.1067792629637008,0.0
772,-0.576217120086904,0.0
773,0.21737380956739302,0.0
774,-0.13678571340929774,0.0
775,0.10149814612036155,0.0
776,-0.06882817856136604,0.0
777,0.07900218319057317,0.0
778,-0.019095883995074323,0.0
779,-0.005371349361068065,0.0
780,-0.033207766860174605,0.0
781,0.006966803387432802,0.0
782,0.032393247482250795,0.0
783,0.09273142250345322,0.0
784,2.6279995489419408,0.0
785,6.821639235333046,0.0
786,-2.061940736940258,0.0
787,0.4232785722775448,0.0
788,-0.018609175372973914,0.0
789,-0.05389536419046127,0.0
790,-0.005928309512045732,0.0
791,-0.03208552450123664,0.0
792,0.009880245173942861,0.0
793,-0.002750448090055523,0.0
794,-0.035002839312628056,0.0
795,0.018140090068356065,0.0
796,0.06299052705568309,0.0
797,-0.04609498401165503,0.0
798,-0.041196738922760615,0.0
799,-0.06248871142111399,0.0
800,0.28657994948849297,0.0
801,4.854996840710728,0.0
802,4.731308921203089,0.0
803,-3.020631203057923,0.0
804,1.5914922179007223,0.0
805,-0.76057915125467,0.0
806,0.31955449241333905,0.0
807,-0.11377004921784668,0.0
808,0.13288869221683441,0.0
809,-0.08543080679080087,0.0
810,-0.06092563352822209,0.0
811,-0.03135322487718202,0.0
812,0.04791666391365206,0.0
813,-0.06955044816080819,0.0
814,-0.006603517171108509,0.0
815,-0.023255023316383364,0.0
816,-0.06686275301071758,0.0
817,1.0833712966756013,0.0
818,6.520620284666691,0.0
819,1.158094352074809,0.0
820,-1.8157642621440504,0.0
821,1.1155300879745833,0.0
822,-0.6845899123671302,0.0
823,0.25115136840471125,0.0
824,-0.10395733264323685,0.0
825,0.04992528338588048,0.0
826,-0.0021420777779044553,0.0
827,0.020579334925271253,0.0
828,-0.05931460024996752,0.0
829,0.03030538579883956,0.0
830,-0.02251244833309974,0.0
831,-0.046560840439728926,0.0
832,0.05581402682862938,0.0
833,0.004909320308290437,0.0
834,2.632930229683465,0.0
835,6.851324978363833,0.0
836,-2.0587385157357034,0.0
837,0.46723493203070665,0.0
838,0.01580874617261612,0.0
839,-0.056762406142118076,0.0
840,0.014540436642260601,0.0
841,0.026717385046881502,0.0
842,-0.01773563781790239,0.0
843,-0.038955704013331344,0.0
844,0.05315674986560709,0.0
845,-0.0006832687626319956,0.0
846,-0.04617025129219643,0.0
847,0.08528826472650422,0.0
848,-0.02884450504605179,0.0
849,0.013008571351658173,0.0
850,0.256000979852594,0.0
851,4.764220711866883,0.0
852,4.767143154467898,0.0
853,-2.894416922562522,0.0
854,1.6355203662434754,0.0
855,-0.7144779236372346,0.0
856,0.24053199749468662,0.0
857,0.022492824694481536,0.0
858,-0.007520160896583292,0.0
859,-0.005223088778810513,0.0
860,0.07453768129096922,0.0
861,-0.07858034946521243,0.0
862,-0.018226312546316716,0.0
863,0.07140730421932896,0.0
864,-0.024274159441917277,0.0
865,-0.03863746287877505,0.0
866,-0.007467309943647598,0.0
867,1.1399782430622507,0.0
868,6.522702782675254,0.0
869,1.1680009837338023,0.0
870,-1.8155123682767687,0.0
871,1.1065073766108473,0.0
872,-0.601695672612165,0.0
873,0.2518070828791712,0.0
874,-0.12293225744200736,0.0
875,0.010492946959634547,0.0
876,-0.052671568158214166,0.0
877,0.060510524338229246,0.0
878,0.07707571689247199,0.0
879,-0.010585204442725756,0.0
880,0.08060224613562447,0.0
881,0.08296002777729083,0.0
882,0.13858025657484577,0.0
883,0.13144194932495998,0.0
884,2.6994294881213743,0.0
885,6.8167955647345115,0.0
886,-2.032791345898427,0.0
887,0.4428498084408289,0.0
888,0.018679050361561804,0.0
889,0.03822229164132921,0.0
890,0.03730942644279451,0.0
891,0.10682696967008858,0.0
892,0.04692987223095556,0.0
893,-0.01579076570022247,0.0
894,0.02882867704240291,0.0
895,0.002136175701116281,0.0
896,-0.10085864449157987,0.0
897,0.041610061547085006,0.0
898,0.007148712479608792,0.0
899,-0.0752494896154782,0.0
900,0.3298266656715716,0.0
901,4.899042061677488,0.0
902,4.665616492760647,0.0
903,-2.9511513375015954,0.0
904,1.608374773927102,0.0
905,-0.7506997028189487,0.0
906,0.32403156744867706,0.0
907,-0.002774919565681294,0.0
908,0.08895612863918531,0.0
909,0.05239468278083338,0.0
910,0.032226812699008435,0.0
911,0.13423032323510656,0.0
912,0.03665944259872443,0.0
913,0.03148615732702308,0.0
914,0.016327892877026816,0.0
915,-0.014552816479512138,0.0
916,-0.08806692388445782,0.0
917,1.1960533451734128,0.0
918,6.594024959699165,0.0
919,1.1979845994714653,0.0
920,-1.7654035544668538,0.0
921,1.2414387257015944,0.0
922,-0.5917194831341185,0.0
923,0.24304636500980936,0.0
924,-0.08812743059306352,0.0
925,0.03323060128277261,0.0
926,-0.018655030738683912,0.0
927,-0.04204192573734661,0.0
928,0.13165252083590043,0.0
929,0.010310586302480815,0.0
930,0.06777564346395204,0.0
931,0.0629808705049879,0.0
932,0.015076147619992653,0.0
933,0.08402501925575515,0.0
934,2.8283715097450943,0.0
935,6.801973655334541,0.0
936,-1.9602490905308732,0.0
937,0.404433144668222,0.0
938,0.010045238542298981,0.0
939,-0.026677370186549504,0.0
940,-0.014983592709794252,0.0
941,-0.07311389194193112,0.0
942,-0.05284233504293609,0.0
943,0.0017710141150744894,0.0
944,-0.003574712351779627,0.0
945,0.07334421016228113,0.0
946,-0.04270121656251853,0.0
947,-0.07752768910980487,0.0
948,-0.04452034750879788,0.0
949,-0.13913633338626707,0.0
950,0.2578649336323904,0.0
951,4.760732179455534,0.0
952,4.6774984352212705,0.0
953,-2.982391370630345,0.0
954,1.5519091756380254,0.0
955,-0.858363798085112,0.0
956,0.24575965233535274,0.0
957,-0.19159419519401946,0.0
958,-0.0419258291494282,0.0
959,-0.0027507446029352914,0.0
960,-0.056135728503573554,0.0
961,0.053117365969937436,0.0
962,0.014795735973772272,0.0
963,0.1033558636151643,0.0
964,0.033944618048139655,0.0
965,-0.06245873880601563,0.0
966,0.02319200286158473,0.0
967,1.1749774243605413,0.0
968,6.662279316837475,0.0
969,1.0205944114577445,0.0
970,-1.7508632320964417,0.0
971,1.0829899566084311,0.0
972,-0.6385472534531614,0.0
973,0.19670784532071828,0.0
974,-0.003641819582985678,0.0
975,0.035433967699367824,0.0
976,0.09325982986667812,0.0
977,-0.008909433345101178,0.0
978,0.09329427597741133,0.0
979,0.0619293857982806,0.0
980,0.03652942326721417,0.0
981,-0.016392424948470777,0.0
982,0.14456409550111854,0.0
983,0.06364134791664379,0.0
984,2.6842079347132723,0.0
985,6.747938628898432,0.0
986,-2.1498961802260994,0.0
987,0.4999814938496288,0.0
988,-0.0023298942242060416,0.0
989,-0.12841716227317762,0.0
990,0.0022533922520892036,0.0
991,-0.026514512501181538,0.0
992,-0.05704036786106576,0.0
993,0.013411382458128285,0.0
994,-0.1226721527620687,0.0
995,-0.09756225681593125,0.0
996,-0.091385274800226,0.0
997,-0.10464734240472355,0.0
998,-0.09596400664747193,0.0
999,-0.1268133036184029,0.0
1000,0.21914080373200195,0.0
1001,4.786837643793002,0.0
1002,4.523065655849567,0.0
1003,-3.1111632597537318,0.0
1004,1.5304144100417072,0.0
1005,-0.9054648667246655,0.0
1006,0.22587979592774576,0.0
1007,-0.12756043059172306,0.0
1008,-0.07460448383936717,0.0
1009,-0.16063721120703767,0.0
1010,-0.03519572753308625,0.0
1011,-0.049996250439501025,0.0
1012,-0.0989668545824795,0.0
1013,-0.16162368961886733,0.0
1014,-0.10102296494038909,0.0
1015,-0.07190207673079611,0.0
1016,-0.05314440826430672,0.0
1017,1.1205246108358546,0.0
1018,6.488119767348444,0.0
1019,1.050832325268889,0.0
1020,-1.6901714349823032,0.0
1021,1.0421604049886706,0.0
1022,-0.6588476704729191,0.0
1023,0.21623100010351143,0.0
1024,-0.1953346768852372,0.0
1025,-0.01948808396381319,0.0
1026,-0.1524908163297946,0.0
1027,-0.11246694376987279,0.0
1028,-0.09468791503202524,0.0
1029,-0.0829689625608994,0.0
1030,-0.05896154532570086,0.0
1031,-0.08888776512264443,0.0
1032,-0.11680640949138843,0.0
1033,-0.027213587924238655,0.0
1034,2.6403349640984586,0.0
1035,6.70768320008495,0.0
1036,-2.2198336233577263,0.0
1037,0.3704738032473885,0.0
1038,-0.08481155913018784,0.0
1039,-0.10650906978014121,0.0
1040,-0.09715249672061016,0.0
1041,0.040059725305912904,0.0
1042,-0.04194580151437363,0.0
1043,-0.09021280090419542,0.0
1044,0.023856546111521076,0.0
1045,-0.025407463936221206,0.0
1046,0.0017189253238730287,0.0
1047,-0.05460700235873467,0.0
1048,-0.024344168032134603,0.0
1049,-0.06725017135720542,0.0
1050,0.4085151358602057,0.0
1051,4.813197495721386,0.0
1052,4.549990406991525,0.0
1053,-2.979319955317277,0.0
1054,1.4696151365136265,0.0
1055,-0.7690404284929432,0.0
1056,0.3308896013472125,0.0
1057,-0.17825526123574004,0.0
1058,0.00047241970549253046,0.0
1059,-0.07653532597548325,0.0
1060,-0.06102341946930337,0.0
1061,-0.0015216017778849344,0.0
1062,-0.036782857506416786,0.0
1063,-0.04415358189272768,0.0
1064,-0.0006106286394797697,0.0
1065,-0.04286084192262812,0.0
1066,0.02188903734122024,0.0
1067,1.1359857981275372,0.0
1068,6.545739062125221,0.0
1069,0.9499900047194538,0.0
1070,-1.7903593509111138,0.0
1071,1.0129468013246943,0.0
1072,-0.6462491454017765,0.0
1073,0.17315243631247726,0.0
1074,-0.16959329469184237,0.0
1075,0.01786854694861563,0.0
1076,0.0030577633663701753,0.0
1077,-0.06023743397934683,0.0
1078,0.06833116730389618,0.0
1079,0.033573850061197376,0.0
1080,-0.03583581195768176,0.0
1081,-0.010271240954379009,0.0
1082,-0.05777410867050698,0.0
1083,-0.009368470109572334,0.0
1084,2.8131509157396652,0.0
1085,6.719717224010647,0.0
1086,-2.2161344859939898,0.0
1087,0.5044980460628914,0.0
1088,0.06173773866107861,0.0
1089,-0.10678601347464824,0.0
1090,0.09902318890884544,0.0
1091,0.01891299062490674,0.0
1092,0.008605536947136675,0.0
1093,-0.06203737212803756,0.0
1094,-0.033077775842871776,0.0
1095,-0.03440491036482726,0.0
1096,0.01931793811734046,0.0
1097,0.011842154136716368,0.0
1098,0.007100897560759732,0.0
1099,-0.07032068908912056,0.0
1100,0.3032548723148879,0.0
1101,4.88663318841348,0.0
1102,4.490678139906382,0.0
1103,-3.0391897609202276,0.0
1104,1.4382589985149274,0.0
1105,-0.7938517867587048,0.0
1106,0.30849663256601995,0.0
1107,-0.09333830197920107,0.0
1108,0.023563076723075407,0.0
1109,-0.025089141187809187,0.0
1110,-0.010069714770416663,0.0
1111,0.052470630879763475,0.0
1112,0.043467836537387554,0.0
1113,-0.042679372430210645,0.0
1114,-0.02507217757006822,0.0
1115,-0.01860047062551338,0.0
1116,-0.04075730140487029,0.0
1117,1.1032382601577133,0.0
1118,6.598570251904722,0.0
1119,1.028706661669529,0.0
1120,-1.6893342764572286,0.0
1121,1.1072693350201563,0.0
1122,-0.6387245617635247,0.0
1123,0.22769991196039127,0.0
1124,-0.031090569885551422,0.0
1125,0.00504154299017266,0.0
1126,-0.04365814977626578,0.0
1127,-0.015021637261926965,0.0
1128,-0.03841650617997727,0.0
1129,0.017328291273513406,0.0
1130,0.0656526095836481,0.0
1131,-0.0898531725234847,0.0
1132,-0.027451083399287066,0.0
1133,0.04366258148209422,0.0
1134,2.7229094394142366,0.0
1135,6.751009629888524,0.0
1136,-2.1371129858653704,0.0
1137,0.46572258113928616,0.0
1138,0.14851802198558609,0.0
1139,0.044220788824350384,0.0
1140,-0.03855289568365263,0.0
1141,-0.035818294730696205,0.0
1142,0.018329699737749817,0.0
1143,0.0333350478417097,0.0
1144,0.07481953017368441,0.0
1145,0.012793638588404183,0.0
1146,0.06147013444037409,0.0
1147,-0.01585266483889553,0.0
1148,-0.07629858097570952,0.0
1149,0.06732423313131661,0.0
1150,0.32688946956233134,0.0
1151,4.996257304967378,0.0
1152,4.5693478007087736,0.0
1153,-2.9280765942839424,0.0
1154,1.6206472532330578,0.0
1155,-0.8141044744702268,0.0
1156,0.31558696544740217,0.0
1157,-0.11737871176737441,0.0
1158,0.0036052909577834746,0.0
1159,-0.0029855609065260694,0.0
1160,-0.0051945347527359124,0.0
1161,0.06617998911647674,0.0
1162,0.027058116697418592,0.0
1163,0.07134416926917195,0.0
1164,-0.052982765552933214,0.0
1165,0.03656906886831602,0.0
1166,-0.021851752996943974,0.0
1167,1.101136874208404,0.0
1168,6.701449538575146,0.0
1169,0.9885058412220318,0.0
1170,-1.6029642303962568,0.0
1171,1.0946492283078395,0.0
1172,-0.6555223043507138,0.0
1173,0.25197100497145786,0.0
1174,-0.08500794452866987,0.0
1175,0.11021671327359513,0.0
1176,-0.05180428446740798,0.0
1177,0.05217937072989293,0.0
1178,-0.0015075952340749682,0.0
1179,0.044648097255607776,0.0
1180,0.04485225681714723,0.0
1181,-0.053502913768704766,0.0
1182,-0.11246942142174919,0.0
1183,0.03817579740655769,0.0
1184,2.79949580042702,0.0
1185,6.781479372609621,0.0
1186,-2.2340084423235527,0.0
1187,0.48375457604486594,0.0
1188,0.011698595078249866,0.0
1189,-0.005868625334307858,0.0
1190,0.03470420105905194,0.0
1191,0.011557266308781126,0.0
1192,-0.006878721420128931,0.0
1193,-0.03237908363521859,0.0
1194,-0.007902308428359428,0.0
1195,-0.06864730560916069,0.0
1196,0.004168574918177712,0.0
1197,0.018349556828112987,0.0
1198,-0.011598356525033247,0.0
1199,0.1008361901408923,0.0
1200,0.37523015740178034,0.0
1201,4.881777729414599,0.0
1202,4.54364587470484,0.0
1203,-2.9849563789339824,0.0
1204,1.7193828273429623,0.0
1205,-0.7857303452580487,0.0
1206,0.2828082369086931,0.0
1207,-0.13451643978876604,0.0
1208,-0.014798661398093223,0.0
1209,0.07088680559266419,0.0
1210,0.03305427817294258,0.0
1211,0.030404039486527385,0.0
1212,0.0050033923068365065,0.0
1213,0.06284223815868806,0.0
1214,0.005832779302433182,0.0
1215,0.07453027890527082,0.0
1216,0.019335219250269518,0.0
1217,1.2389201793714777,0.0
1218,6.707599517253362,0.0
1219,0.9962820858392866,0.0
1220,-1.6341193137081806,0.0
1221,1.1073962910901605,0.0
1222,-0.5859220417079499,0.0
1223,0.19795133683010002,0.0
1224,-0.08794202784152014,0.0
1225,0.06842846277928033,0.0
1226,-0.05314459769497694,0.0
1227,-0.07377427442352383,0.0
1228,0.037281603698655456,0.0
1229,-0.08462433049813242,0.0
1230,-0.04929755624134662,0.0
1231,-0.08833191082979977,0.0
1232,-0.13613442065605447,0.0
1233,-0.006384609163215534,0.0
1234,2.6923928912124504,0.0
1235,6.650141976054052,0.0
1236,-2.160613678227078,0.0
1237,0.5146671253246199,0.0
1238,-0.011312199502907131,0.0
1239,0.006584149725329946,0.0
1240,0.02340405533408207,0.0
1241,0.12376510643604029,0.0
1242,0.004956269784890048,0.0
1243,0.03145464197420919,0.0
1244,0.01726110905201634,0.0
1245,-0.09163384769104901,0.0
1246,0.01785219543421152,0.0
1247,0.003764769534044445,0.0
1248,-0.018847758180957748,0.0
1249,-0.08653107424072103,0.0
1250,0.28395599033923913,0.0
1251,4.7884334654343865,0.0
1252,4.364760380724215,0.0
1253,-3.0240902792169173,0.0
1254,1.51672644357175,0.0
1255,-0.7522252413036669,0.0
1256,0.23093841941071672,0.0
1257,-0.10421466955587773,0.0
1258,0.032966225415290984,0.0
1259,-0.05880160077515585,0.0
1260,-0.046156712305767275,0.0
1261,-0.018781804844384256,0.0
1262,0.03050540842442303,0.0
1263,-0.013045698153092576,0.0
1264,0.10775509958535612,0.0
1265,-0.03264857473844855,0.0
1266,-0.0003616533572671165,0.0
1267,1.1687823174670815,0.0
1268,6.578548484780777,0.0
1269,0.9753527162333268,0.0
1270,-1.5998010302446866,0.0
1271,1.0872129173097929,0.0
1272,-0.6110344326422712,0.0
1273,0.18126734373738465,0.0
1274,-0.15122610596005856,0.0
1275,-0.05777222142160546,0.0
1276,0.032814318409891796,0.0
1277,0.10609708219887096,0.0
1278,-0.08534654107549064,0.0
1279,-0.018068191666441066,0.0
1280,-0.07926523331614498,0.0
1281,0.04175050066362139,0.0
1282,0.0219853483685037,0.0
1283,-0.005188745447859543,0.0
1284,2.7577875248658468,0.0
1285,6.74582903039987,0.0
1286,-2.2197111086877177,0.0
1287,0.5081501619065181,0.0
1288,-0.11228675274644877,0.0
1289,-0.10900354120973028,0.0
1290,-0.06410273731520859,0.0
1291,-0.019713848845464746,0.0
1292,-0.05489070072192745,0.0
1293,-0.02666096411639183,0.0
1294,-0.03016737122047592,0.0
1295,0.0632370001124948,0.0
1296,-0.09528102722795306,0.0
1297,0.01676082459702999,0.0
1298,-0.03279979379094558,0.0
1299,0.006415929400288289,0.0
1300,0.26992988529586254,0.0
1301,4.926883358967039,0.0
1302,4.431811845713231,0.0
1303,-2.923960961863746,0.0
1304,1.5574808297074139,0.0
1305,-0.8838878490033713,0.0
1306,0.19312087544256232,0.0
1307,-0.20371968326988407,0.0
1308,0.009206778954370165,0.0
1309,-0.0930948591750184,0.0
1310,-0.1202831943700112,0.0
1311,-0.0792845826855803,0.0
1312,-0.022722066199398414,0.0
1313,-0.04618700083042605,0.0
1314,-0.02631047494500076,0.0
1315,-0.06998248289239206,0.0
1316,-0.059515189548634384,0.0
1317,1.0859820737805363,0.0
1318,6.568641442738433,0.0
1319,0.8351784254127896,0.0
1320,-1.6465676813705492,0.0
1321,1.0344403144149728,0.0
1322,-0.6992125438980633,0.0
1323,0.21182165899369854,0.0
1324,-0.12569180159129614,0.0
1325,0.007909503137447885,0.0
1326,-0.04858571833332158,0.0
1327,-0.022943235933266356,0.0
1328,-0.0012775681234859435,0.0
1329,-0.07583991604250999,0.0
1330,-0.05592523685308055,0.0
1331,-0.031462144578681336,0.0
1332,-0.05620002412816206,0.0
1333,-0.05901497202427019,0.0
1334,2.803075072167506,0.0
1335,6.702905146199574,0.0
1336,-2.2138068848908405,0.0
1337,0.48417984811619896,0.0
1338,-0.08346890182649433,0.0
1339,-0.03333979966188427,0.0
1340,-0.05266149162173987,0.0
1341,-0.1376321450945242,0.0
1342,-0.04992797042217643,0.0
1343,-0.000650244433619461,0.0
1344,-0.1396011387380237,0.0
1345,-0.18527241000238287,0.0
1346,-0.07605782666821682,0.0
1347,-0.049729463828992716,0.0
1348,-0.0383354435777485,0.0
1349,-0.12612584622371412,0.0
1350,0.3504550645592235,0.0
1351,4.841383357076225,0.0
1352,4.3808170543724225,0.0
1353,-3.0473826822260266,0.0
1354,1.5276037185391138,0.0
1355,-0.8216098826527873,0.0
1356,0.25927132067643915,0.0
1357,-0.08954271678594573,0.0
1358,-0.02494690245126068,0.0
1359,0.06587983978090506,0.0
1360,-0.09211232196584565,0.0
1361,-0.1114612276078196,0.0
1362,-0.06837792805899251,0.0
1363,-0.043094740088972,0.0
1364,-0.07766294930384264,0.0
1365,-0.09172466619279951,0.0
1366,-0.027795776324367333,0.0
1367,1.1953022969431322,0.0
1368,6.65150739588693,0.0
1369,0.7559102986915821,0.0
1370,-1.7225499688961832,0.0
1371,0.9080272401082269,0.0
1372,-0.6076391419864263,0.0
1373,0.19809601334793037,0.0
1374,-0.12774749530624396,0.0
1375,-0.03992836449343379,0.0
1376,-0.12680061194501563,0.0
1377,-0.06189411393247653,0.0
1378,-0.13395508612306017,0.0
1379,-0.0039447997172316895,0.0
1380,-0.12932849704032245,0.0
1381,-0.12995264501963205,0.0
1382,-0.10066498031070154,0.0
1383,-0.017196229444729906,0.0
1384,2.749132366962651,0.0
1385,6.638987120588748,0.0
1386,-2.343081177656074,0.0
1387,0.5427100260174397,0.0
1388,-0.12447956664486615,0.0
1389,-0.034864711249368185,0.0
1390,-0.12244848993385893,0.0
1391,-0.1367614119815194,0.0
1392,-0.10386473026386706,0.0
1393,-0.005271368299779894,0.0
1394,-0.03529590988784155,0.0
1395,-0.14584665522159107,0.0
1396,-0.11209329294835114,0.0
1397,0.018288314223809193,0.0
1398,-0.013375784723684461,0.0
1399,-0.18679203124948782,0.0
1400,0.0983602035682487,0.0
1401,4.884481910527701,0.0
1402,4.324694360585319,0.0
1403,-3.044205585677864,0.0
1404,1.413053944694436,0.0
1405,-0.8969534357761471,0.0
1406,0.2082074781152394,0.0
1407,-0.17525188044687348,0.0
1408,-0.08187866270321398,0.0
1409,0.005669890991759158,0.0
1410,-0.09677439001237964,0.0
1411,0.018375581702200786,0.0
1412,-0.07187221213982668,0.0
1413,-0.041227727941071934,0.0
1414,-0.030128426883199465,0.0
1415,-0.06719158710427486,0.0
1416,-0.10130894725113297,0.0
1417,1.231223450108541,0.0
1418,6.677911859336011,0.0
1419,0.8156558843832193,0.0
1420,-1.7454463036834156,0.0
1421,1.026497736618662,0.0
1422,-0.6381452957811086,0.0
1423,0.2392262232707868,0.0
1424,-0.1654284337941322,0.0
1425,-0.05751531297595586,0.0
1426,-0.03627816220522196,0.0
1427,-0.017908801121872528,0.0
1428,-0.10177665225241303,0.0
1429,-0.09356288922439152,0.0
1430,-0.05578118832466222,0.0
1431,-0.04167650087534958,0.0
1432,-0.028953881734538944,0.0
1433,-0.02380980666312508,0.0
1434,2.6931872715466403,0.0
1435,6.612034711337248,0.0
1436,-2.2396002907985753,0.0
1437,0.3840115287018042,0.0
1438,-0.09292894081787688,0.0
1439,-0.012714151414928626,0.0
1440,-0.027844460203845525,0.0
1441,-0.04078266770659627,0.0
1442,-0.03994472975726494,0.0
1443,-0.004284721611106677,0.0
1444,-0.07233370848436105,0.0
1445,-0.020127269086169672,0.0
1446,-0.1788482575872387,0.0
1447,-0.04318214346371463,0.0
1448,0.03789090501350213,0.0
1449,-0.005112064762499528,0.0
1450,0.3352405742666165,0.0
1451,4.893439950527918,0.0
1452,4.340237081228983,0.0
1453,-3.0553459658395035,0.0
1454,1.5897471916247523,0.0
1455,-0.8852333876275855,0.0
1456,0.2592586540730522,0.0
1457,-0.22105044400541266,0.0
1458,0.01599647401595522,0.0
1459,-0.12409806442125329,0.0
1460,-0.0928478015132925,0.0
1461,-0.05663553124970009,0.0
1462,-0.043058346309280834,0.0
1463,-0.08128106516256187,0.0
1464,-0.11252326487391398,0.0
1465,-0.09322534383597057,0.0
1466,-0.04622014624865252,0.0
1467,1.267492764911025,0.0
1468,6.55828520195299,0.0
1469,0.8615452859627695,0.0
1470,-1.618990581653742,0.0
1471,1.0335883174016625,0.0
1472,-0.5864916525212376,0.0
1473,0.2199934582875099,0.0
1474,-0.08858372667923366,0.0
1475,-0.008062905557845407,0.0
1476,0.10602415107374398,0.0
1477,-0.057930236061809984,0.0
1478,-0.0770461326106201,0.0
1479,-0.026480541714793818,0.0
1480,0.006592203497758985,0.0
1481,-0.10325992165301613,0.0
1482,-0.08249613891362687,0.0
1483,0.017740809638222287,0.0
1484,2.8703027126768554,0.0
1485,6.5857443812448775,0.0
1486,-2.234941434854006,0.0
1487,0.45381891376005434,0.0
1488,-0.15025121551651652,0.0
1489,-0.05581219323496165,0.0
1490,-0.0265261709199019,0.0
1491,-0.0612871891412988,0.0
1492,-0.12281181146601518,0.0
1493,-0.10176006338994945,0.0
1494,-0.12365026729889969,0.0
1495,-0.04685491060403867,0.0
1496,-0.1555657587969581,0.0
1497,-0.042046165908397916,0.0
1498,-0.13987956868123508,0.0
1499,0.0226654251612178,0.0
1500,0.30290122813708587,0.0
1501,4.9651686763977025,0.0
1502,4.343482106918085,0.0
1503,-3.0695483151802283,0.0
1504,1.5985453223914483,0.0
1505,-0.8579975628237801,0.0
1506,0.340442767302006,0.0
1507,-0.114481486910226,0.0
1508,0.028468573025095267,0.0
1509,-0.09764963665492507,0.0
1510,-0.12366138851528306,0.0
1511,-0.0449102061202009,0.0
1512,-0.043679347064361836,0.0
1513,-0.07470033327441206,0.0
1514,-0.05003355029272365,0.0
1515,-0.01560403689882383,0.0
1516,-0.021040104143392514,0.0
1517,1.1731837352091659,0.0
1518,6.723545154654721,0.0
1519,0.7494528298609093,0.0
1520,-1.5844972835661852,0.0
1521,0.9616790931006072,0.0
1522,-0.5583845700619713,0.0
1523,0.2325486754870116,0.0
1524,-0.1398043953294652,0.0
1525,-0.060315005642224,0.0
1526,-0.004260176666524406,0.0
1527,-0.031119232171342638,0.0
1528,-0.035752037386205034,0.0
1529,-0.031000891650850054,0.0
1530,0.0655812232881602,0.0
1531,-0.02399070263252722,0.0
1532,0.047579710177174966,0.0
1533,0.12171822767121161,0.0
1534,2.8876485405473185,0.0
1535,6.679620448426001,0.0
1536,-2.237448789529757,0.0
1537,0.5274377242974139,0.0
1538,-0.07560270678749417,0.0
1539,0.05653562359802018,0.0
1540,-0.07242909155131039,0.0
1541,0.045490943197593,0.0
1542,-0.0156274450354063,0.0
1543,-0.027734182351775234,0.0
1544,-0.042296661717520175,0.0
1545,-0.06260653910739904,0.0
1546,0.056003643939907644,0.0
1547,-0.02682645552483892,0.0
1548,0.0697772388140471,0.0
1549,0.07204619954218427,0.0
1550,0.4576097492058033,0.0
1551,5.000097528445747,0.0
1552,4.410145491483883,0.0
1553,-2.948249030675587,0.0
1554,1.5319964614695394,0.0
1555,-0.8296112798217902,0.0
1556,0.43671226825728093,0.0
1557,-0.14434997334405059,0.0
1558,-0.017367601017083963,0.0
1559,-0.05021449552164976,0.0
1560,0.05568619674750368,0.0
1561,-0.009094860602313836,0.0
1562,-0.04464388371247567,0.0
1563,-0.011638141799539776,0.0
1564,-0.01513254111324916,0.0
1565,-0.14396677497034088,0.0
1566,-0.043411738241352416,0.0
1567,1.2328048022566127,0.0
1568,6.580496441503972,0.0
1569,0.8155680601517015,0.0
1570,-1.6586206764337093,0.0
1571,1.0554087541818236,0.0
1572,-0.7010484605076447,0.0
1573,0.13552498735986762,0.0
1574,-0.15926737329694537,0.0
1575,-0.08385065931834182,0.0
1576,0.009186395889835712,0.0
1577,-0.07515036040214407,0.0
1578,-0.05300569333435279,0.0
1579,-0.015986190467755894,0.0
1580,-0.08392260549544739,0.0
1581,0.03823794314457071,0.0
1582,-0.03683402863997712,0.0
1583,0.10322743501292007,0.0
1584,2.87263756638529,0.0
1585,6.661957384484989,0.0
1586,-2.293565828464546,0.0
1587,0.5733353511545318,0.0
1588,-0.02418045809950569,0.0
1589,0.031021782698001446,0.0
1590,-0.022362678712793623,0.0
1591,0.1644746937442908,0.0
1592,-0.0471328275020282,0.0
1593,-0.0651578478296479,0.0
1594,-0.033708097590073066,0.0
1595,0.045651068760514495,0.0
1596,0.0765552275758775,0.0
1597,0.01733071283072196,0.0
1598,0.0021285388631557753,0.0
1599,0.11231946845191446,0.0
1600,0.44410393100016543,0.0
1601,5.112820512129488,0.0
1602,4.351085419537382,0.0
1603,-2.99092506438779,0.0
1604,1.5816129492673188,0.0
1605,-0.7502980119343989,0.0
1606,0.35300371349535054,0.0
1607,-0.12392660384352983,0.0
1608,-0.00456050868303344,0.0
1609,0.04702711213636687,0.0
1610,0.024988618099962712,0.0
1611,-0.04151076358576438,0.0
1612,-0.008331133880195126,0.0
1613,-0.09338748160581492,0.0
1614,-0.041327158000758334,0.0
1615,0.047597235773748366,0.0
1616,0.09926653031479522,0.0
1617,1.207129226701881,0.0
1618,6.7991190699626545,0.0
1619,0.6267663625291489,0.0
1620,-1.5799053691317886,0.0
1621,0.9641231976257594,0.0
1622,-0.5433501598190995,0.0
1623,0.24422938929744797,0.0
1624,-0.07814866163771693,0.0
1625,0.008169970393670154,0.0
1626,0.04748609094857936,0.0
1627,-0.031085297028972027,0.0
1628,0.06340533114221764,0.0
1629,-0.10279485144627593,0.0
1630,0.012924581578230204,0.0
1631,0.04192118781641645,0.0
1632,0.010853601076358077,0.0
1633,0.03784749084462707,0.0
1634,2.988093606613521,0.0
1635,6.70979687792166,0.0
1636,-2.2173430571924264,0.0
1637,0.5436207356843891,0.0
1638,0.023771014212069994,0.0
1639,-0.038353559829714105,0.0
1640,0.022133700616003983,0.0
1641,-0.005481399289367198,0.0
1642,-0.044858836309741926,0.0
1643,0.03881414258565921,0.0
1644,-0.019641702465768837,0.0
1645,-0.026695184917377997,0.0
1646,0.032307031652757834,0.0
1647,0.0854186940409036,0.0
1648,-0.03260065248188402,0.0
1649,-0.0973377986024262,0.0
1650,0.38069596885902884,0.0
1651,5.0418825177059805,0.0
1652,4.2890719928696255,0.0
1653,-2.9900470519058726,0.0
1654,1.5875626788278103,0.0
1655,-0.8094648136074868,0.0
1656,0.32102683296102846,0.0
1657,-0.1796095576948942,0.0
1658,-0.06200791571646333,0.0
1659,-0.0682214857077884,0.0
1660,-0.07216733458183802,0.0
1661,-0.10930910510206586,0.0
1662,-0.15427762717902851,0.0
1663,-0.13333506204249307,0.0
1664,-0.10222823661114189,0.0
1665,-0.026429926857944205,0.0
1666,-0.07981446278655581,0.0
1667,1.1992775469314705,0.0
1668,6.747952952726089,0.0
1669,0.8073579904040262,0.0
1670,-1.4652422650551868,0.0
1671,0.9907802482558787,0.0
1672,-0.5195281864958801,0.0
1673,0.28302002604637183,0.0
1674,-0.03783458911923439,0.0
1675,0.156798379726228,0.0
1676,-0.007960060967414764,0.0
1677,0.07055033324646597,0.0
1678,0.08884182155915762,0.0
1679,0.11139985789009352,0.0
1680,-0.013108394531824951,0.0
1681,-0.05823027158008613,0.0
1682,-0.04615408967369906,0.0
1683,0.1797287076000815,0.0
1684,2.8697279907638404,0.0
1685,6.660817967186533,0.0
1686,-2.193877349250389,0.0
1687,0.6387276619248384,0.0
1688,-0.05362105958864337,0.0
1689,-0.0021023241354813475,0.0
1690,-0.002834557510283515,0.0
1691,0.048822850518064134,0.0
1692,-0.004943609183673288,0.0
1693,0.039327964901140114,0.0
1694,0.01830556220349417,0.0
1695,0.007713646886844354,0.0
1696,0.050285198535459645,0.0
1697,0.05906164796031687,0.0
1698,-0.06463003714902323,0.0
1699,0.051220588149228904,0.0
1700,0.35817400449552017,0.0
1701,5.0829082154226155,0.0
1702,4.345918100602423,0.0
1703,-2.9434395478632664,0.0
1704,1.5203286806819396,0.0
1705,-0.8753487943109604,0.0
1706,0.3425365229926034,0.0
1707,-0.05264404368514822,0.0
1708,0.01859081332351662,0.0
1709,-0.007385472559376068,0.0
1710,-0.03864874359069976,0.0
1711,-0.03877440650124816,0.0
1712,0.030773658797564447,0.0
1713,0.01146089094247025,0.0
1714,0.0033506186895434706,0.0
1715,0.029192679585258417,0.0
1716,0.0800668360638315,0.0
1717,1.2652796037574536,0.0
1718,6.7744315319204205,0.0
1719,0.7359452396827612,0.0
1720,-1.4064867505230063,0.0
1721,1.1598766065817878,0.0
1722,-0.4759955586195881,0.0
1723,0.21218806178692826,0.0
1724,-0.015847314209737458,0.0
1725,0.09738635774377488,0.0
1726,0.11073064493931162,0.0
1727,0.11637128941910091,0.0
1728,0.12188635881227308,0.0
1729,-0.026400366069564883,0.0
1730,-0.019490891105760216,0.0
1731,-0.004855166937375761,0.0
1732,-0.040817144293699356,0.0
1733,0.10521067818498653,0.0
1734,2.953458869489881,0.0
1735,6.737402418800715,0.0
1736,-2.2128577911539473,0.0
1737,0.67795490784976,0.0
1738,-0.1188267862525032,0.0
1739,0.09700795661680671,0.0
1740,0.09708689982330918,0.0
1741,0.06792811987352736,0.0
1742,0.05849521438564221,0.0
1743,0.010856526477454727,0.0
1744,0.13761082036268985,0.0
1745,0.03871343893536694,0.0
1746,0.052231451917898936,0.0
1747,0.0817967104110432,0.0
1748,0.036093723692885035,0.0
1749,-0.002087285608903769,0.0
1750,0.457406659753643,0.0
1751,5.1709681765120035,0.0
1752,4.312896219305009,0.0
1753,-2.880851891036465,0.0
1754,1.7565295716151779,0.0
1755,-0.7397057320546098,0.0
1756,0.3478328154140788,0.0
1757,-0.07860495941611842,0.0
1758,0.06932922518635423,0.0
1759,-0.0436641348512583,0.0
1760,0.04210848292451282,0.0
1761,-0.014471383332036014,0.0
1762,0.029274011993407855,0.0
1763,0.009962006392598255,0.0
1764,0.055954268497170015,0.0
1765,0.04271749075357156,0.0
1766,0.055883042706551755,0.0
1767,1.4100644549161456,0.0
1768,6.724439964147118,0.0
1769,0.7088641175027129,0.0
1770,-1.478348113716804,0.0
1771,1.1485685348172363,0.0
1772,-0.5533742528869023,0.0
1773,0.29614864736259916,0.0
1774,-0.04663951190582599,0.0
1775,0.020884357445583993,0.0
1776,-0.019934102191369162,0.0
1777,-0.0012096691303329857,0.0
1778,0.019430521933189993,0.0
1779,0.07588297226514687,0.0
1780,-0.13948692940931376,0.0
1781,0.06018821266658796,0.0
1782,0.05606365801333406,0.0
1783,0.07822309568492918,0.0
1784,2.9761369484179876,0.0
1785,6.64155636576958,0.0
1786,-2.312465206884297,0.0
1787,0.6896319816985395,0.0
1788,-0.05535867614563919,0.0
1789,0.10854834822812118,0.0
1790,0.10157906199635763,0.0
1791,0.03757537610175479,0.0
1792,0.0340196616615107,0.0
1793,0.06741824922544519,0.0
1794,0.016788376603761576,0.0
1795,-0.012685763159801258,0.0
1796,0.041938664224568004,0.0
1797,-0.019975796340632235,0.0
1798,0.0048701067303198245,0.0
1799,-0.04979728450001968,0.0
1800,0.41726173367514163,0.0
1801,4.999057283051155,0.0
1802,4.27743391115126,0.0
1803,-2.860417753549716,0.0
1804,1.6493293241629157,0.0
1805,-0.7742675571659677,0.0
1806,0.34551430820424855,0.0
1807,-0.11477202949564015,0.0
1808,0.02125582004152575,0.0
1809,-0.03766564950611908,0.0
1810,-0.09620781178326177,0.0
1811,-0.049897073251994384,0.0
1812,-0.032116407606424466,0.0
1813,-0.032658818546859605,0.0
1814,0.024044704774795894,0.0
1815,0.09316152122096799,0.0
1816,-0.0026247766883696344,0.0
1817,1.3227377039291544,0.0
1818,6.768027538132571,0.0
1819,0.6484556496682148,0.0
1820,-1.4798347801823721,0.0
1821,1.0669432029909103,0.0
1822,-0.5963121515903766,0.0
1823,0.20131065221196673,0.0
1824,-0.015230896814865485,0.0
1825,0.04429068040591167,0.0
1826,0.05387032339525959,0.0
1827,0.05482172693377251,0.0
1828,0.05207403258514154,0.0
1829,0.04244028200234294,0.0
1830,0.07821188048024173,0.0
1831,0.019748755053506775,0.0
1832,0.022958138285417293,0.0
1833,0.07695508331904505,0.0
1834,2.943074362861362,0.0
1835,6.678002871130288,0.0
1836,-2.400662502083816,0.0
1837,0.597165461842511,0.0
1838,-0.06718810667645377,0.0
1839,0.017802356804823977,0.0
1840,0.0752578174499979,0.0
1841,0.10644383011526122,0.0
1842,0.0400787653826543,0.0
1843,0.13166258224100214,0.0
1844,0.04656118472852855,0.0
1845,-0.028980460481914265,0.0
1846,0.009862661332810174,0.0
1847,-0.07493594675792094,0.0
1848,-0.053283103819010476,0.0
1849,0.009380512579932502,0.0
1850,0.44444811347482827,0.0
1851,5.0769212892540745,0.0
1852,4.248718062644258,0.0
1853,-2.982384508702537,0.0
1854,1.5576162196992827,0.0
1855,-0.8184187886308674,0.0
1856,0.30630859394267806,0.0
1857,-0.20956993983277183,0.0
1858,0.04839318573695329,0.0
1859,-0.0287729068767197,0.0
1860,-0.017072765004124423,0.0
1861,0.08819450421651884,0.0
1862,0.029699652310515127,0.0
1863,-0.07929812068092366,0.0
1864,0.012253924188262547,0.0
1865,0.02093020385913393,0.0
1866,0.020419993160859705,0.0
1867,1.3613571558934665,0.0
1868,6.690244970792938,0.0
1869,0.6955647785037774,0.0
1870,-1.453193065376279,0.0
1871,1.0039041802778004,0.0
1872,-0.4975325034287023,0.0
1873,0.23786793238971615,0.0
1874,-0.07881843243349046,0.0
1875,0.09363261872421028,0.0
1876,-0.0025895707175767717,0.0
1877,0.03646046882748563,0.0
1878,0.05126391171310263,0.0
1879,0.0700962844458567,0.0
1880,-0.017492147384940378,0.0
1881,0.040137942947705965,0.0
1882,0.025777293733225733,0.0
1883,0.09567050715578998,0.0
1884,2.974904417240612,0.0
1885,6.700301335609808,0.0
1886,-2.3302437277518595,0.0
1887,0.6862337383075529,0.0
1888,-0.108034571854829,0.0
1889,-0.05151148986346231,0.0
1890,-0.1356018815107764,0.0
1891,-0.023655158001946237,0.0
1892,-0.020384572371324156,0.0
1893,-0.08098999057046179,0.0
1894,0.0034598432465181295,0.0
1895,-0.11727543207977198,0.0
1896,-0.08991107702898404,0.0
1897,0.039169002900573464,0.0
1898,-0.053507873353828506,0.0
1899,2.7053741790718233e-05,0.0
1900,0.33677242114467754,0.0
1901,5.116206381017645,0.0
1902,4.1939518317204785,0.0
1903,-2.9441679436443,0.0
1904,1.5449777178380444,0.0
1905,-0.7787874511896153,0.0
1906,0.28505115381130297,0.0
1907,-0.05717265115877089,0.0
1908,0.08950770559772978,0.0
1909,0.06757041718167793,0.0
1910,0.020962809382892238,0.0
1911,0.044826375413877226,0.0
1912,0.06394383541079608,0.0
1913,0.05731970887320835,0.0
1914,0.07737541438963541,0.0
1915,-0.07839902607037272,0.0
1916,-0.047095832267770484,0.0
1917,1.2245693688741337,0.0
1918,6.719315512679131,0.0
1919,0.6292444717237029,0.0
1920,-1.5500012126737626,0.0
1921,1.0000958670835682,0.0
1922,-0.5052111452406158,0.0
1923,0.22009180640104184,0.0
1924,-0.0979355055893123,0.0
1925,0.11368833615361915,0.0
1926,-0.05742495194061044,0.0
1927,0.1067833510085065,0.0
1928,0.04650258243341237,0.0
1929,0.04862319964555217,0.0
1930,0.08288066611693243,0.0
1931,0.07785143337708074,0.0
1932,0.06295614579592407,0.0
1933,0.20663786797343123,0.0
1934,3.0099411429496916,0.0
1935,6.730276826619099,0.0
1936,-2.2153213208151143,0.0
1937,0.7991502299960468,0.0
1938,-0.16674959485056512,0.0
1939,0.006432164028588205,0.0
1940,-0.01743995205238868,0.0
1941,-0.0005256358463291214,0.0
1942,-0.011140984873317918,0.0
1943,0.06232572354239178,0.0
1944,0.10064577117735589,0.0
1945,0.02199438807791576,0.0
1946,-0.004720667227580811,0.0
1947,-0.0046450596628172455,0.0
1948,0.027432979630551853,0.0
1949,-0.03999017337625786,0.0
1950,0.4285267229829503,0.0
1951,5.088018641714861,0.0
1952,4.237390219711618,0.0
1953,-2.9913340796670203,0.0
1954,1.5856370001586917,0.0
1955,-0.7729875307027809,0.0
1956,0.3531787928638573,0.0
1957,-0.15292005082035037,0.0
1958,-0.0032938031601883327,0.0
1959,-0.009877836373806952,0.0
1960,-0.04132073916763449,0.0
1961,0.04040868793314076,0.0
1962,0.05237626861440263,0.0
1963,0.07519707300240278,0.0
1964,-0.05798482746939489,0.0
1965,0.06931704916575347,0.0
1966,0.013561584385651033,0.0
1967,1.3285439246081083,0.0
1968,6.761765279497511,0.0
1969,0.6592370861655019,0.0
1970,-1.4476216746084796,0.0
1971,1.0458518023326164,0.0
1972,-0.4592091046026006,0.0
1973,0.20510749878338713,0.0
1974,-0.03866510873641138,0.0
1975,0.03577942244128543,0.0
1976,0.13945015291061877,0.0
1977,0.06084081449120218,0.0
1978,0.0022607156012869473,0.0
1979,0.025541518078304126,0.0
1980,0.02664485318099337,0.0
1981,-0.03324362939451042,0.0
1982,-0.023895745049804837,0.0
1983,0.14782062824013792,0.0
1984,3.104895555322499,0.0
1985,6.682874732794505,0.0
1986,-2.3619359410646474,0.0
1987,0.8188649093779987,0.0
1988,-0.13550384064289833,0.0
1989,0.0988048383100583,0.0
1990,-0.04601212780745334,0.0
1991,0.0882480023682975,0.0
1992,-0.06432452334467886,0.0
1993,0.02802165595319136,0.0
1994,0.08736461538018167,0.0
1995,0.03281396425830379,0.0
1996,0.009030681531315567,0.0
1997,0.014811903744719333,0.0
1998,0.07509150412328705,0.0
1999,0.007251480635577755,0.0
2000,0.4492675479071075,0.0
2001,5.132042211849901,0.0
2002,4.280391453513538,0.0
2003,-2.857862082180735,0.0
2004,1.7144751416388795,0.0
2005,-0.6494647462938361,0.0
2006,0.45146675921884993,0.0
2007,-0.04966077264432598,0.0
2008,0.09009714468677316,0.0
2009,0.056790297999057666,0.0
2010,0.12653252516847874,0.0
2011,0.1712340193254243,0.0
2012,0.044046031421444504,0.0
2013,0.01594493084557294,0.0
2014,0.12155310355384173,0.0
2015,0.06667895331704388,0.0
2016,0.09531170529717317,0.0
2017,1.3163705527373373,0.0
2018,6.731416786143692,0.0
2019,0.6507013382964429,0.0
2020,-1.406192589394758,0.0
2021,0.9725727604385498,0.0
2022,-0.4714224759378626,0.0
2023,0.31324263902237964,0.0
2024,-0.015279921071816305,0.0
2025,-0.06239260233881828,0.0
2026,0.07495299456492943,0.0
2027,0.029563751024564537,0.0
2028,0.1959280862731903,0.0
2029,0.013473790632747729,0.0
2030,0.1182229378406172,0.0
2031,0.13087819208143786,0.0
2032,0.1505680651606559,0.0
2033,0.16826168890479817,0.0
2034,3.1643832535075975,0.0
2035,6.78080830910694,0.0
2036,-2.2768053899108334,0.0
2037,0.9037985911347197,0.0
2038,-0.03706136420900436,0.0
2039,0.12052931773856984,0.0
2040,0.030221750525963462,0.0
2041,-0.0042683648104657745,0.0
2042,0.05223272696517196,0.0
2043,0.027108590398336865,0.0
2044,0.04384933483391558,0.0
2045,0.0875827106623673,0.0
2046,0.032731509139711984,0.0
2047,-0.04957336744402657,0.0
2048,0.05033524016191733,0.0
2049,0.08626251811240407,0.0
2050,0.413446757034232,0.0
2051,5.203857543181569,0.0
2052,4.199972459244915,0.0
2053,-2.8792946651373463,0.0
2054,1.5703236776244944,0.0
2055,-0.8055423850469611,0.0
2056,0.44352436020656716,0.0
2057,-0.12572081783524375,0.0
2058,0.17130829507664153,0.0
2059,-0.0316396462651901,0.0
2060,0.007189051437151959,0.0
2061,-0.039970490475938106,0.0
2062,0.011383585273814629,0.0
2063,-0.03327964304179652,0.0
2064,0.08634323335013877,0.0
2065,-0.020446505677373585,0.0
2066,0.02798942500484128,0.0
2067,1.3640656754639566,0.0
2068,6.733056978057187,0.0
2069,0.538912278556454,0.0
2070,-1.365663746877098,0.0
2071,0.9652049336594358,0.0
2072,-0.5048819308167597,0.0
2073,0.13490586090409074,0.0
2074,-0.0660994925951787,0.0
2075,-0.003666175284939361,0.0
2076,0.03591585252924981,0.0
2077,0.01937287905355258,0.0
2078,-0.035620698676612675,0.0
2079,0.03271680191972217,0.0
2080,-0.06709748030544486,0.0
2081,0.0162784241038769,0.0
2082,-0.06771262453775227,0.0
2083,0.15092296193974797,0.0
2084,3.0083606325719674,0.0
2085,6.643106807942784,0.0
2086,-2.447133150703029,0.0
2087,0.5986819908467194,0.0
2088,-0.18738667846659662,0.0
2089,-0.049860332206676974,0.0
2090,-0.018005928116966524,0.0
2091,0.013485392849730958,0.0
2092,-0.023629220613096243,0.0
2093,-0.03129708233873761,0.0
2094,-0.03525097664867835,0.0
2095,-0.07081242047167133,0.0
2096,0.019297250639624935,0.0
2097,0.0013324936107950124,0.0
2098,0.00394756243484588,0.0
2099,-0.06254921782936276,0.0
2100,0.3650819036230251,0.0
2101,5.182065126052633,0.0
2102,4.120365574006687,0.0
2103,-2.8953164059984315,0.0
2104,1.5395301881743189,0.0
2105,-0.7140230398615947,0.0
2106,0.23473845028036697,0.0
2107,-0.15076320688232242,0.0
2108,0.023004472039711787,0.0
2109,0.005128601069512531,0.0
2110,-0.03959501063400133,0.0
2111,-0.05872829173776089,0.0
2112,0.020432604007906037,0.0
2113,-0.02978906626989809,0.0
2114,-0.09199069485156727,0.0
2115,-0.08018586184532969,0.0
2116,-0.049566661921521885,0.0
2117,1.3254217358639553,0.0
2118,6.762466854186132,0.0
2119,0.5054233011893126,0.0
2120,-1.4116602656904675,0.0
2121,0.893349870908029,0.0
2122,-0.4825285698110978,0.0
2123,0.24817560764317204,0.0
2124,0.018317857527580014,0.0
2125,-0.042871430316950065,0.0
2126,0.041913373438762225,0.0
2127,-0.011493517439381677,0.0
2128,0.06914960540777065,0.0
2129,-0.13282891836365718,0.0
2130,-0.09433959490179772,0.0
2131,-0.0240942677165069,0.0
2132,-0.10414400586760063,0.0
2133,0.04901717325432778,0.0
2134,2.9623241938892257,0.0
2135,6.497303877089113,0.0
2136,-2.4403349057357357,0.0
2137,0.6249799014889257,0.0
2138,-0.1535185278538217,0.0
2139,-0.014048328120430172,0.0
2140,-0.08565402516644804,0.0
2141,-0.058956899787922366,0.0
2142,-0.06768275422060238,0.0
2143,0.0352639579340141,0.0
2144,-0.08219869776808528,0.0
2145,-0.06952363420262672,0.0
2146,0.03825412055577864,0.0
2147,0.04842761044623653,0.0
2148,0.02720184113773745,0.0
2149,-0.11221877780597553,0.0
2150,0.4266321692987031,0.0
2151,5.138501499627341,0.0
2152,4.120476417145101,0.0
2153,-2.8438313344953077,0.0
2154,1.5366944279824923,0.0
2155,-0.8499491687697603,0.0
2156,0.31943612555811585,0.0
2157,-0.16865834205556343,0.0
2158,0.024429028193402924,0.0
2159,-0.12199790915548628,0.0
2160,-0.014170304380196345,0.0
2161,-0.053645237043915675,0.0
2162,-0.16155948906092352,0.0
2163,-0.06702815079547975,0.0
2164,-0.03389094868790064,0.0
2165,-0.08754948205549201,0.0
2166,-0.17363240149721132,0.0
2167,1.257684848344942,0.0
2168,6.689628435665426,0.0
2169,0.5124892886661703,0.0
2170,-1.4809007841749655,0.0
2171,0.9554594656986669,0.0
2172,-0.5682993985236151,0.0
2173,0.2169558332523929,0.0
2174,-0.11623574218189722,0.0
2175,0.10592574068629966,0.0
2176,0.0072334427039467755,0.0
2177,-0.10994473947875205,0.0
2178,-0.029723060371077522,0.0
2179,-0.0312298519739656,0.0
2180,-0.005532650696965777,0.0
2181,-0.0386292105483135,0.0
2182,-0.011718327671623233,0.0
2183,0.04002407347989089,0.0
2184,2.998845995213984,0.0
2185,6.526762799607828,0.0
2186,-2.4405653391659565,0.0
2187,0.6990863668738583,0.0
2188,-0.11967943331768345,0.0
2189,0.03321044244450689,0.0
2190,-0.08633779215043079,0.0
2191,0.01715988346172586,0.0
2192,-0.04521285927710674,0.0
2193,0.013961260379448122,0.0
2194,-0.05793066072304826,0.0
2195,-0.049982989472111834,0.0
2196,-0.06532769215689967,0.0
2197,0.024575083720957652,0.0
2198,-0.012651127980061894,0.0
2199,-0.03044059024410599,0.0
2200,0.35839763953249515,0.0
2201,5.125161715528055,0.0
2202,4.102666956416989,0.0
2203,-2.8699097670658555,0.0
2204,1.595711425476798,0.0
2205,-0.7270837849793286,0.0
2206,0.29482716334094256,0.0
2207,-0.10808615171563027,0.0
2208,0.06409597866827683,0.0
2209,-0.05824721958930918,0.0
2210,-0.042525688845939644,0.0
2211,0.05418128862147782,0.0
2212,-0.02292840043734886,0.0
2213,-0.05134661972077477,0.0
2214,0.04281602751358621,0.0
2215,-0.01894424115925056,0.0
2216,-0.03946372097792009,0.0
2217,1.3027054710689656,0.0
2218,6.705812277985597,0.0
2219,0.5312549850984428,0.0
2220,-1.396965341935926,0.0
2221,1.0327236962474893,0.0
2222,-0.5605676830829208,0.0
2223,0.2081218910232916,0.0
2224,-0.018495465181779233,0.0
2225,0.02674808645021727,0.0
2226,0.09483120115927615,0.0
2227,-0.04691554903726439,0.0
2228,0.06435245005535759,0.0
2229,0.02592687670489447,0.0
2230,-0.051196175109707406,0.0
2231,0.08550521879781917,0.0
2232,0.009444170816289704,0.0
2233,-0.022891676077699867,0.0
2234,3.063718297794881,0.0
2235,6.537479640342955,0.0
2236,-2.431685563273806,0.0
2237,0.7442561511313319,0.0
2238,-0.11707604787716366,0.0
2239,0.0330583304860252,0.0
2240,0.07913422364153408,0.0
2241,-0.007732929857692271,0.0
2242,0.06482791070090052,0.0
2243,0.08877326522203051,0.0
2244,0.0881834465033868,0.0
2245,-0.04554890013147986,0.0
2246,0.0974086481095909,0.0
2247,-0.007403493288525291,0.0
2248,0.035440829329846435,0.0
2249,-0.04539102438335474,0.0
2250,0.41583794046226824,0.0
2251,5.268607128336183,0.0
2252,4.129754396379157,0.0
2253,-2.9937797869834317,0.0
2254,1.6233086062149624,0.0
2255,-0.844219027698888,0.0
2256,0.22235354396921736,0.0
2257,-0.13434707279046465,0.0
2258,-0.02559266323577928,0.0
2259,-0.07588838616473845,0.0
2260,-0.09075618559605525,0.0
2261,-0.10774187093270526,0.0
2262,0.01982280975029712,0.0
2263,-0.028153341257822997,0.0
2264,0.0020807048050541233,0.0
2265,-0.07632983653292147,0.0
2266,0.04424211458978053,0.0
2267,1.3583301488854633,0.0
2268,6.7665328765186015,0.0
2269,0.444164761509703,0.0
2270,-1.3239692358950397,0.0
2271,0.9436998241184121,0.0
2272,-0.4005462344892598,0.0
2273,0.13647798704235842,0.0
2274,-0.029840881249585362,0.0
2275,0.05842653927493335,0.0
2276,0.00580367965462187,0.0
2277,0.07549191305629022,0.0
2278,0.027386256031064232,0.0
2279,-0.0031302840560709574,0.0
2280,0.11434110874363138,0.0
2281,0.006078129858806486,0.0
2282,0.03534658158312889,0.0
2283,0.11098197193899965,0.0
2284,3.1253475429029076,0.0
2285,6.578623723798629,0.0
2286,-2.3820355408980602,0.0
2287,0.7273056224271104,0.0
2288,-0.1352815768576125,0.0
2289,0.018735720457641703,0.0
2290,-0.026820986737203255,0.0
2291,0.03831238839776789,0.0
2292,0.034925476701918756,0.0
2293,0.052166612251816465,0.0
2294,-0.035925135722912796,0.0
2295,-0.01573899440658606,0.0
2296,0.020996596570072613,0.0
2297,0.04284427869589067,0.0
2298,-0.010393706673440415,0.0
2299,-0.010491057606663991,0.0
2300,0.4766062869787779,0.0
2301,5.195455297037193,0.0
2302,4.030400585381543,0.0
2303,-2.841052539958087,0.0
2304,1.5795600518643615,0.0
2305,-0.8209410299196842,0.0
2306,0.4065856649129672,0.0
2307,-0.036160962999116905,0.0
2308,0.058408066490087215,0.0
2309,0.033977683428143855,0.0
2310,0.044227898463255005,0.0
2311,-0.0084831716962481,0.0
2312,-0.030433870872044872,0.0
2313,0.02148951592930076,0.0
2314,0.03543763509262903,0.0
2315,-0.03442103681235503,0.0
2316,0.029684274565678515,0.0
2317,1.386101298313035,0.0
2318,6.870283222404137,0.0
2319,0.493569713230291,0.0
2320,-1.3647811035596993,0.0
2321,1.0247349371500694,0.0
2322,-0.5014622905529349,0.0
2323,0.26610651308457706,0.0
2324,-0.03025870626870507,0.0
2325,-0.05563325569544472,0.0
2326,0.1153168997487465,0.0
2327,-0.03184937375713355,0.0
2328,0.007952330337480176,0.0
2329,-0.024327708565720512,0.0
2330,0.07870997316374115,0.0
2331,-0.03918841112668378,0.0
2332,-0.014502875695897685,0.0
2333,-0.0185510728717444,0.0
2334,3.008712505068419,0.0
2335,6.500075525024215,0.0
2336,-2.433603665589833,0.0
2337,0.7636208699166924,0.0
2338,-0.20152156560660167,0.0
2339,-0.11807118311416748,0.0
2340,-0.040416900817183715,0.0
2341,0.011895513082114145,0.0
2342,-0.004811537666442878,0.0
2343,-0.055119775418369966,0.0
2344,-0.01908014995558343,0.0
2345,-0.028824365128457975,0.0
2346,-0.0036492104496426876,0.0
2347,-0.07557797814554365,0.0
2348,-0.08739232744530712,0.0
2349,-0.04423815320313995,0.0
2350,0.36530853507748484,0.0
2351,5.174170061071835,0.0
2352,3.8914316191401896,0.0
2353,-2.8922527309711317,0.0
2354,1.5701084708213267,0.0
2355,-0.8593017446446655,0.0
2356,0.25227493322607897,0.0
2357,-0.223675708528156,0.0
2358,0.08242032073258132,0.0
2359,-0.024607656426849943,0.0
2360,-0.04338103607209354,0.0
2361,-0.1457562148654312,0.0
2362,-0.017156678045574743,0.0
2363,-0.02221615541417045,0.0
2364,-0.03825225006768711,0.0
2365,-0.06440176878207557,0.0
2366,0.0021919084876594053,0.0
2367,1.295014775533323,0.0
2368,6.772362633922355,0.0
2369,0.41909818619529554,0.0
2370,-1.3330989429078275,0.0
2371,0.993749858532352,0.0
2372,-0.4261295084287207,0.0
2373,0.2397338568164025,0.0
2374,-0.03277211505332861,0.0
2375,-0.01140587084047311,0.0
2376,-0.033550350901024914,0.0
2377,0.019851328902549658,0.0
2378,0.003547789467004546,0.0
2379,-0.05178689952623151,0.0
2380,0.03780029455228003,0.0
2381,0.027227240961365785,0.0
2382,0.04738182079338748,0.0
2383,0.03018690619528954,0.0
2384,3.1026949609967738,0.0
2385,6.569155942269115,0.0
2386,-2.4017202225789296,0.0
2387,0.7907063720028465,0.0
2388,-0.18033503738143725,0.0
2389,-0.015681575041045802,0.0
2390,-0.025779204098370187,0.0
2391,0.13982138713195916,0.0
2392,-0.004469486146368753,0.0
2393,0.02348068501056457,0.0
2394,0.06302690808397383,0.0
2395,-0.016497547450761034,0.0
2396,-0.04595763386471578,0.0
2397,0.018277185922044033,0.0
2398,0.02367370531572702,0.0
2399,-0.024938667209460866,0.0
2400,0.4699821521525573,0.0
2401,5.225221670010519,0.0
2402,3.9841143168616635,0.0
2403,-2.8405399597039813,0.0
2404,1.5881655983335892,0.0
2405,-0.7862676882179995,0.0
2406,0.26235125236969237,0.0
2407,-0.14524190755450145,0.0
2408,0.09776046908687608,0.0
2409,0.05724769404498184,0.0
2410,-0.009952505127344979,0.0
2411,-0.013576424835236385,0.0
2412,-0.09671645335460372,0.0
2413,0.06298455057153639,0.0
2414,0.03852442909657272,0.0
2415,0.046500212011327445,0.0
2416,-0.11427644379504823,0.0
2417,1.3513068929829024,0.0
2418,6.797506763775352,0.0
2419,0.44815725523335465,0.0
2420,-1.2882526468610775,0.0
2421,0.9418450061172704,0.0
2422,-0.46957591213438243,0.0
2423,0.21880792329898285,0.0
2424,-0.1016551020088611,0.0
2425,-0.021947128039876022,0.0
2426,-0.01582214063994861,0.0
2427,-0.14791514958452867,0.0
2428,-0.018014012132602637,0.0
2429,-0.05965129529525978,0.0
2430,-0.1499827972754802,0.0
2431,-0.13032810753056173,0.0
2432,-0.08374421589451017,0.0
2433,0.16283017538255432,0.0
2434,3.048960131305646,0.0
2435,6.508945104072074,0.0
2436,-2.5412560119958534,0.0
2437,0.7524238357176879,0.0
2438,-0.09272337756283222,0.0
2439,0.13453600922876702,0.0
2440,0.021737238845604953,0.0
2441,-0.012986140508608766,0.0
2442,-0.014275801952931653,0.0
2443,0.018626915211613443,0.0
2444,-0.07133414997097494,0.0
2445,0.035836645959933446,0.0
2446,-0.025943395791457165,0.0
2447,-0.06133845298483417,0.0
2448,0.024649024277248268,0.0
2449,0.029246774022314993,0.0
2450,0.448505105823894,0.0
2451,5.248393450596891,0.0
2452,3.960268153927212,0.0
2453,-2.8916320728300025,0.0
2454,1.5492574606828908,0.0
2455,-0.8032718705240651,0.0
2456,0.3615126532624348,0.0
2457,-0.11438721704899149,0.0
2458,0.04912134127165163,0.0
2459,-0.03994009508462393,0.0
2460,-0.012639277931032455,0.0
2461,-0.05946487646800982,0.0
2462,0.07006557111956498,0.0
2463,0.011469854167960689,0.0
2464,-0.018492866632189412,0.0
2465,-0.022444982937619352,0.0
2466,-0.044530403166260404,0.0
2467,1.3922866898958433,0.0
2468,6.843949869544289,0.0
2469,0.3419034520650015,0.0
2470,-1.2547988146495521,0.0
2471,0.9490188510299358,0.0
2472,-0.42588923527815364,0.0
2473,0.21330437959533877,0.0
2474,-0.1059454409280873,0.0
2475,-0.028208077138867547,0.0
2476,-0.06812815182040088,0.0
2477,-0.08866996969263694,0.0
2478,-0.06937634440150311,0.0
2479,-0.001303130038574539,0.0
2480,-0.02172783133676955,0.0
2481,0.028861026520798007,0.0
2482,-0.030977172031769137,0.0
2483,0.052129507021407326,0.0
2484,3.169399358649002,0.0
2485,6.451283412924336,0.0
2486,-2.4629612238906655,0.0
2487,0.8481440573114951,0.0
2488,-0.3182967382423368,0.0
2489,-0.007498171737538549,0.0
2490,-0.0700138203477053,0.0
2491,-0.05682578396321959,0.0
2492,0.07431403994774956,0.0
2493,-0.061115222953960255,0.0
2494,0.01621237262363942,0.0
2495,-0.07650691086469542,0.0
2496,-0.010675486284052193,0.0
2497,-0.023702335947382476,0.0
2498,-0.024909081798306473,0.0
2499,0.017496579870801495,0.0
2500,0.4187576889520939,0.0
2501,5.30488069177882,0.0
2502,3.9643667192425336,0.0
2503,-2.905516092075269,0.0
2504,1.583138065774017,0.0
2505,-0.910715885738086,0.0
2506,0.26551044011668345,0.0
2507,-0.07437815356090725,0.0
2508,-0.08579231087245492,0.0
2509,-0.017973971209522314,0.0
2510,-0.011950784623924633,0.0
2511,0.07116075894420511,0.0
2512,-0.0293559624261245,0.0
2513,0.04360481269687833,0.0
2514,0.12002462447883941,0.0
2515,0.08917340777071676,0.0
2516,-0.014311052572438756,0.0
2517,1.3937679261670375,0.0
2518,6.95361914188018,0.0
2519,0.3213186334931213,0.0
2520,-1.313467177805715,0.0
2521,0.9423951122890213,0.0
2522,-0.48696824822683904,0.0
2523,0.21436673851962362,0.0
2524,-0.03532644775915924,0.0
2525,-0.005503409165665276,0.0
2526,-0.020310218014017493,0.0
2527,-0.06799525955742644,0.0
2528,-0.02562284761777211,0.0
2529,0.03203363445634784,0.0
2530,0.005403941410840207,0.0
2531,0.02061146075339702,0.0
2532,-0.11659329369548661,0.0
2533,0.15736171032087576,0.0
2534,3.08387338698854,0.0
2535,6.389535266103329,0.0
2536,-2.5212835585856608,0.0
2537,0.7266192867918754,0.0
2538,-0.2238332872400354,0.0
2539,0.010803661984075376,0.0
2540,0.006000773081563687,0.0
2541,-0.13218920845710191,0.0
2542,-0.1254573889636067,0.0
2543,-0.13748752917111143,0.0
2544,-0.14832215223424638,0.0
2545,0.0014494881262746284,0.0
2546,-0.14892414981412538,0.0
2547,-0.034362681251384815,0.0
2548,-0.12254568115683852,0.0
2549,-0.1116705050669383,0.0
2550,0.38049304620061514,0.0
2551,5.306342712565541,0.0
2552,3.9418597093509753,0.0
2553,-2.8078667815678213,0.0
2554,1.581485867144606,0.0
2555,-0.8527309447110405,0.0
2556,0.28164158438100084,0.0
2557,-0.15768577240646509,0.0
2558,-0.03583198875349919,0.0
2559,-0.055548376115077666,0.0
2560,-0.006910996766011772,0.0
2561,0.01826874832996541,0.0
2562,-0.08628261936695855,0.0
2563,-0.04309714305552745,0.0
2564,-0.11984072344626932,0.0
2565,-0.10542069156637976,0.0
2566,-0.040987648408022416,0.0
2567,1.3279692994837442,0.0
2568,6.832169878661018,0.0
2569,0.3447574564128612,0.0
2570,-1.2324332037728758,0.0
2571,0.8686047071711269,0.0
2572,-0.49624507623655506,0.0
2573,0.1624049069653089,0.0
2574,-0.1194571123681367,0.0
2575,-0.003736505622025615,0.0
2576,-0.0490042824782875,0.0
2577,0.08382219888516684,0.0
2578,-0.0540189481782823,0.0
2579,-0.05286330013987415,0.0
2580,0.05080596518292803,0.0
2581,0.0988141707995784,0.0
2582,0.0657222005054924,0.0
2583,0.0705274842682468,0.0
2584,3.146408263148683,0.0
2585,6.51339067857791,0.0
2586,-2.547420823417404,0.0
2587,0.6857208435790917,0.0
2588,-0.28233468051811844,0.0
2589,-0.032801206886497646,0.0
2590,-0.010692940528303274,0.0
2591,-0.030002409881900248,0.0
2592,-0.036022604112090274,0.0
2593,-0.030878990168397874,0.0
2594,-0.09453242744689833,0.0
2595,-0.07097635999269504,0.0
2596,-0.01583818336925715,0.0
2597,0.006580616568327452,0.0
2598,0.05598617242918086,0.0
2599,0.04123384192194653,0.0
2600,0.4367156411170004,0.0
2601,5.272404229555499,0.0
2602,3.927327008453117,0.0
2603,-2.905680564981162,0.0
2604,1.6019195071466774,0.0
2605,-0.826931373467072,0.0
2606,0.3426217524759636,0.0
2607,-0.08419845434043446,0.0
2608,0.06284006073377092,0.0
2609,-0.02017474477324758,0.0
2610,0.04951516999402069,0.0
2611,-0.024139925335784268,0.0
2612,-0.04912484512831919,0.0
2613,0.01646844459161579,0.0
2614,0.07163871797033498,0.0
2615,0.002892150508632185,0.0
2616,-0.02046071384047075,0.0
2617,1.4191986594872394,0.0
2618,6.904259473586965,0.0
2619,0.2680014714596083,0.0
2620,-1.183099425249722,0.0
2621,0.8664762983235877,0.0
2622,-0.5347248151551781,0.0
2623,0.11936019053503345,0.0
2624,-0.022656871337753473,0.0
2625,-0.03920644378554337,0.0
2626,-0.02843501908350435,0.0
2627,0.03758604570140508,0.0
2628,-0.015432867260168005,0.0
2629,-0.010301561686726553,0.0
2630,-0.004244800319579938,0.0
2631,0.02881929912822162,0.0
2632,0.024296966782074825,0.0
2633,0.14603252840084124,0.0
2634,3.161805944291179,0.0
2635,6.515168855334925,0.0
2636,-2.4931844684008753,0.0
2637,0.9218109940659743,0.0
2638,-0.28728087772904387,0.0
2639,0.013553341691412923,0.0
2640,-0.14026334215589115,0.0
2641,0.007042098686459528,0.0
2642,-0.0861240968368398,0.0
2643,0.03235811624402315,0.0
2644,0.015654312258136262,0.0
2645,-0.11706435647066973,0.0
2646,-0.043017452021098135,0.0
2647,-0.03496715251851811,0.0
2648,-0.043499598482012694,0.0
2649,0.05503821883649418,0.0
2650,0.3737431329792753,0.0
2651,5.296103896176664,0.0
2652,3.9720875215384757,0.0
2653,-2.863207532631747,0.0
2654,1.569685253244678,0.0
2655,-0.7217434389861133,0.0
2656,0.2825436187468564,0.0
2657,-0.14723271484133169,0.0
2658,0.04231735895606625,0.0
2659,-0.03525486438876199,0.0
2660,-0.02817361511967781,0.0
2661,0.003111321664435087,0.0
2662,-0.0006595663597021642,0.0
2663,0.03914543544287324,0.0
2664,0.043326945639520324,0.0
2665,0.05219656697862873,0.0
2666,0.06792605690415282,0.0
2667,1.4263182193615105,0.0
2668,6.844634220564046,0.0
2669,0.3360370790690679,0.0
2670,-1.2284481434682044,0.0
2671,0.9341547092097476,0.0
2672,-0.4151688090801628,0.0
2673,0.15336034358626277,0.0
2674,-0.09141236705354452,0.0
2675,0.011957565425859159,0.0
2676,-0.027889153093315272,0.0
2677,-0.03548615337882938,0.0
2678,0.03148320236847378,0.0
2679,-0.08678428626182493,0.0
2680,-0.009929838606456484,0.0
2681,-0.0353259415293986,0.0
2682,0.006798275620362011,0.0
2683,0.011142966975630952,0.0
2684,3.1710260123766245,0.0
2685,6.465648514009287,0.0
2686,-2.606133620017221,0.0
2687,0.7561759990547455,0.0
2688,-0.2657836129578708,0.0
2689,0.03053799651370135,0.0
2690,-0.13244468398216294,0.0
2691,-0.047520973598005264,0.0
2692,-0.016134455632294396,0.0
2693,0.011354659332864399,0.0
2694,-0.10485993085807896,0.0
2695,-0.07455179673742968,0.0
2696,-0.03118125965138976,0.0
2697,-0.11917580626031006,0.0
2698,-0.024781188525236537,0.0
2699,-0.0008340779123364658,0.0
2700,0.4317720469472563,0.0
2701,5.184190907395365,0.0
2702,3.9168552187819077,0.0
2703,-2.851006652861883,0.0
2704,1.5781379869789072,0.0
2705,-0.8614416348927925,0.0
2706,0.31792451075862055,0.0
2707,-0.2391266480704935,0.0
2708,0.06385223564446739,0.0
2709,0.03358056634230704,0.0
2710,-0.04480247933728154,0.0
2711,-0.09431017373690864,0.0
2712,-0.01701783197655238,0.0
2713,0.007884167073659094,0.0
2714,-0.06594291947551362,0.0
2715,-0.052420860806526505,0.0
2716,-0.07179215819790352,0.0
2717,1.3944853208635046,0.0
2718,6.824613078517722,0.0
2719,0.2059299314537482,0.0
2720,-1.3125966384525003,0.0
2721,0.8521103009138941,0.0
2722,-0.6180781271095952,0.0
2723,0.1457319087956007,0.0
2724,-0.17255086591850963,0.0
2725,-0.12620208938468797,0.0
2726,-0.06591062745221574,0.0
2727,-0.06305628830321083,0.0
2728,0.0079863863937727,0.0
2729,-0.057572064485261615,0.0
2730,-0.08482478308208813,0.0
2731,-0.031061807520323382,0.0
2732,-0.00424880539915668,0.0
2733,0.020787430024155125,0.0
2734,3.2320645267013397,0.0
2735,6.375748968238378,0.0
2736,-2.5082438502718016,0.0
2737,0.9251606817486586,0.0
2738,-0.283513456829921,0.0
2739,0.04626788425175493,0.0
2740,-0.009091937091878423,0.0
2741,0.026709770734137703,0.0
2742,-0.03582608151473289,0.0
2743,0.0261889914563297,0.0
2744,0.07591139080668434,0.0
2745,0.0018669399984931776,0.0
2746,-0.00020666896440898596,0.0
2747,0.08513582765030414,0.0
2748,0.039428099361659356,0.0
2749,-0.08063736718540014,0.0
2750,0.46764410180479743,0.0
2751,5.290711871367172,0.0
2752,3.7878333788891716,0.0
2753,-2.834708147259128,0.0
2754,1.552038514664275,0.0
2755,-0.8315369204512637,0.0
2756,0.3907030136233821,0.0
2757,-0.09550537055314579,0.0
2758,0.006607578454411234,0.0
2759,-0.08510257373604367,0.0
2760,-0.05162901834180662,0.0
2761,0.0010109188953558185,0.0
2762,0.03624541396125122,0.0
2763,-0.023662135285830922,0.0
2764,0.05491045380629063,0.0
2765,-0.08274221620339114,0.0
2766,0.043908163736177876,0.0
2767,1.5049808017871884,0.0
2768,6.85260105782411,0.0
2769,0.20558818704377152,0.0
2770,-1.1887651200463945,0.0
2771,0.9806370913810387,0.0
2772,-0.4516843186315939,0.0
2773,0.19371351687451158,0.0
2774,-0.011073425862914994,0.0
2775,0.0712040462393421,0.0
2776,-0.07174104555388325,0.0
2777,0.006042726050480774,0.0
2778,0.011980541646747958,0.0
2779,0.02987193399036746,0.0
2780,0.030795136716241976,0.0
2781,-0.015579862087713801,0.0
2782,0.021988685211291374,0.0
2783,0.18385216515382646,0.0
2784,3.2700858447872254,0.0
2785,6.45453784039649,0.0
2786,-2.5468661567055064,0.0
2787,0.9135164126548785,0.0
2788,-0.2656372064278854,0.0
2789,0.18490773583579134,0.0
2790,0.019339711816786245,0.0
2791,0.13585123292808404,0.0
2792,0.0711879330489553,0.0
2793,0.07426235678242271,0.0
2794,0.07075418227747862,0.0
2795,0.06489277057559097,0.0
2796,0.06782561405970414,0.0
2797,0.1060257062835193,0.0
2798,0.06338087467139629,0.0
2799,-0.0002613470127462228,0.0
2800,0.5052963246062818,0.0
2801,5.345760956598515,0.0
2802,3.9684667503779907,0.0
2803,-2.6621543176757667,0.0
2804,1.5776864241070327,0.0
2805,-0.7586691902012956,0.0
2806,0.39895236865384887,0.0
2807,-0.06963822313369222,0.0
2808,0.1798564473908939,0.0
2809,0.1312168399364519,0.0
2810,0.17809948941404943,0.0
2811,0.0797533466590499,0.0
2812,0.12872205792727717,0.0
2813,-0.026912449112670017,0.0
2814,0.19961104326310158,0.0
2815,0.15057360207032572,0.0
2816,0.09752915924696559,0.0
2817,1.6324307947238654,0.0
2818,6.807444986412766,0.0
2819,0.2840161462371143,0.0
2820,-1.1072743747412144,0.0
2821,0.9133722462057726,0.0
2822,-0.3915882051841432,0.0
2823,0.29653658461906157,0.0
2824,0.008204173274126661,0.0
2825,0.052807398512504974,0.0
2826,0.009590193907640772,0.0
2827,0.08833534781731046,0.0
2828,0.0005971299355099352,0.0
2829,0.14017452826960872,0.0
2830,0.16924425812041718,0.0
2831,0.0769583617636254,0.0
2832,-0.024384697800144975,0.0
2833,0.10841195521785171,0.0
2834,3.319330672979642,0.0
2835,6.502748496364651,0.0
2836,-2.55412944075908,0.0
2837,0.9622541270916619,0.0
2838,-0.15910572169148499,0.0
2839,0.17509972326949114,0.0
2840,0.09439942802778198,0.0
2841,0.07278829435885917,0.0
2842,0.02515472200799361,0.0
2843,0.05104428824661208,0.0
2844,0.04134891034205029,0.0
2845,0.12185090664895668,0.0
2846,-0.020853550200550672,0.0
2847,0.0853787045637047,0.0
2848,0.1529207984862648,0.0
2849,0.05668055610633403,0.0
2850,0.5950094178901724,0.0
2851,5.46148931773007,0.0
2852,3.857836829802947,0.0
2853,-2.6962583592709497,0.0
2854,1.7652951022263932,0.0
2855,-0.6923299712526786,0.0
2856,0.4761129636269876,0.0
2857,-0.05617615842074218,0.0
2858,0.03136393685651552,0.0
2859,0.11272043265547321,0.0
2860,0.13636107695619426,0.0
2861,0.11750786720759643,0.0
2862,0.09592837923193673,0.0
2863,0.11624037723027814,0.0
2864,0.07006602823714284,0.0
2865,0.05437923577169207,0.0
2866,0.15256522834927927,0.0
2867,1.5518172670583166,0.0
2868,6.897760839971188,0.0
2869,0.35724564572280937,0.0
2870,-1.1390329763300222,0.0
2871,1.0310554946454011,0.0
2872,-0.4408211346237578,0.0
2873,0.27644069418162226,0.0
2874,0.10084747208676983,0.0
2875,0.03165895699157202,0.0
2876,0.07239283585730166,0.0
2877,0.06615426499359463,0.0
2878,0.025169435393884068,0.0
2879,-0.08214529269167964,0.0
2880,0.03356532741676525,0.0
2881,0.041968617652353365,0.0
2882,0.14378018916078283,0.0
2883,0.2638787561827288,0.0
2884,3.3962664458178655,0.0
2885,6.574779574653163,0.0
2886,-2.4901888027773054,0.0
2887,0.9524838961802135,0.0
2888,-0.2577833398516689,0.0
2889,0.13095247737610285,0.0
2890,0.0314578302398478,0.0
2891,0.11617527193807281,0.0
2892,0.07471102817279068,0.0
2893,0.05960203626497792,0.0
2894,0.11853271983916562,0.0
2895,-0.050030874686407725,0.0
2896,-0.12021824191743893,0.0
2897,-0.007950044845332623,0.0
2898,0.008355070754141956,0.0
2899,-0.06351503596569762,0.0
2900,0.46768447061127255,0.0
2901,5.321901464004895,0.0
2902,3.7261277393723646,0.0
2903,-2.8054546364131068,0.0
2904,1.576186440577382,0.0
2905,-0.7460280083938116,0.0
2906,0.3707146071971102,0.0
2907,-0.13021115713636622,0.0
2908,0.04196660662731085,0.0
2909,0.008777892630720562,0.0
2910,-0.07003700771538465,0.0
2911,-0.0944854633826191,0.0
2912,0.0724750606115081,0.0
2913,0.04201377085938592,0.0
2914,-0.003706475427204009,0.0
2915,0.05631181082839921,0.0
2916,-0.01892463531710674,0.0
2917,1.4634423816851656,0.0
2918,6.895610205245397,0.0
2919,0.08843710874882939,0.0
2920,-1.1334446596022152,0.0
2921,0.8812152139194762,0.0
2922,-0.4275353385096111,0.0
2923,0.1338829008391541,0.0
2924,-0.055046930331347325,0.0
2925,-0.0930606085449821,0.0
2926,0.12054582743351065,0.0
2927,0.06823586024792297,0.0
2928,0.008025933386457709,0.0
2929,0.13638654575026354,0.0
2930,0.023175795750366997,0.0
2931,-0.07463439409889225,0.0
2932,0.014214137728006872,0.0
2933,0.12890393550031007,0.0
2934,3.21290771771616,0.0
2935,6.437987533047086,0.0
2936,-2.579163553442739,0.0
2937,0.8662393144769607,0.0
2938,-0.23957177901263493,0.0
2939,0.01473695036489682,0.0
2940,-0.10746070583677886,0.0
2941,0.0021800025629001582,0.0
2942,0.005776750578841257,0.0
2943,-0.005632682112593729,0.0
2944,0.02130891799038055,0.0
2945,0.047143601803293994,0.0
2946,0.049707166638608365,0.0
2947,0.058885140467658435,0.0
2948,0.014908070156641013,0.0
2949,0.02776676036392761,0.0
2950,0.5625920270422465,0.0
2951,5.475713364427438,0.0
2952,3.818307531846044,0.0
2953,-2.7825979620988943,0.0
2954,1.6321153988608341,0.0
2955,-0.785391942873522,0.0
2956,0.38301589065938957,0.0
2957,-0.10725772509951217,0.0
2958,0.13779043197321966,0.0
2959,0.008224025157253945,0.0
2960,0.12630351942452278,0.0
2961,-0.026703605023680087,0.0
2962,0.04065387743589661,0.0
2963,0.0730870095280596,0.0
2964,-0.021752958627494545,0.0
2965,-0.006636188443416241,0.0
2966,0.0725094687019392,0.0
2967,1.5240860274569354,0.0
2968,6.756727358880081,0.0
2969,0.248726722606941,0.0
2970,-1.10504576534174,0.0
2971,0.8769355875490104,0.0
2972,-0.4199731760986422,0.0
2973,0.13618840009926644,0.0
2974,-0.1592998431553173,0.0
2975,-0.047307739374974796,0.0
2976,0.057042116925601336,0.0
2977,0.08852390055591035,0.0
2978,-0.05586495995530652,0.0
2979,0.02103617516296687,0.0
2980,0.042504888609604795,0.0
2981,-0.10633453452822864,0.0
2982,-0.05783134695857083,0.0
2983,0.08444984904556826,0.0
2984,3.342710613341679,0.0
2985,6.395667628903486,0.0
2986,-2.606262518676657,0.0
2987,0.8281022516930475,0.0
2988,-0.24491607270117643,0.0
2989,0.07178767163020862,0.0
2990,-0.005324164135719983,0.0
2991,0.002332197028700301,0.0
2992,-0.14932957345727507,0.0
2993,0.018534447047068824,0.0
2994,-0.02411362204744236,0.0
2995,-0.013778066150646877,0.0
2996,-0.05243045984320333,0.0
2997,-0.07011369780732328,0.0
2998,0.03901085458554509,0.0
2999,-0.06099061929282481,0.0
3000,0.4817122910280366,0.0
3001,5.370869794391442,0.0
3002,3.7000774596453345,0.0
3003,-2.878937842111995,0.0
3004,1.5680432832751767,0.0
3005,-0.8563915363713788,0.0
3006,0.2914090367220957,0.0
3007,-0.10193067603381353,0.0
3008,0.06740080086244798,0.0
3009,-0.031481763407242985,0.0
3010,-0.0369038526418684,0.0
3011,-0.05933812981796695,0.0
3012,-0.01677999540701726,0.0
3013,-0.05581957749330961,0.0
3014,0.07945459084973261,0.0
3015,0.0024170495995590943,0.0
3016,-0.06752325957932478,0.0
3017,1.4502416988628546,0.0
3018,6.932372084445948,0.0
3019,0.10031873376741791,0.0
3020,-0.9731202993805097,0.0
3021,0.9700883860722825,0.0
3022,-0.3666297093906359,0.0
3023,0.2908000231766529,0.0
3024,0.05992366858703822,0.0
3025,0.10695771357923031,0.0
3026,-0.0005058419238896522,0.0
3027,0.10401173355052776,0.0
3028,-0.04435849457047969,0.0
3029,0.0033168990667547644,0.0
3030,0.015359945375704847,0.0
3031,-0.054006064053201214,0.0
3032,-0.016850058847283703,0.0
3033,0.07619940182046878,0.0
3034,3.3150001054495357,0.0
3035,6.306627049265066,0.0
3036,-2.72544403157258,0.0
3037,0.8916634788458015,0.0
3038,-0.3028236328436976,0.0
3039,-0.010634376686247102,0.0
3040,-0.06223560753015676,0.0
3041,0.03427423351136069,0.0
3042,-0.007871535797147632,0.0
3043,0.05576786066608226,0.0
3044,-0.031626981718968036,0.0
3045,0.09655708498851388,0.0
3046,0.04426983520958644,0.0
3047,-0.16552390189682772,0.0
3048,-0.056834673998282806,0.0
3049,-0.11107286320304423,0.0
3050,0.5512538091640172,0.0
3051,5.381470752663316,0.0
3052,3.7376434845118887,0.0
3053,-2.9169592220667053,0.0
3054,1.563586627614956,0.0
3055,-0.7165583361223247,0.0
3056,0.260797571687717,0.0
3057,-0.1159535734092261,0.0
3058,-0.04856582121062323,0.0
3059,-0.08132198902083529,0.0
3060,-0.04864409483526534,0.0
3061,0.050303729501805824,0.0
3062,0.008981512817920964,0.0
3063,0.08603885667452223,0.0
3064,0.0002679512893512398,0.0
3065,0.029177980225242553,0.0
3066,-0.010544797106343953,0.0
3067,1.4839314728171242,0.0
3068,6.897965985558294,0.0
3069,0.008028200988652104,0.0
3070,-1.054326422102092,0.0
3071,0.8794889671335884,0.0
3072,-0.5076986391389463,0.0
3073,0.16678908577906798,0.0
3074,-0.020236182505742516,0.0
3075,0.02182661755509608,0.0
3076,0.018615173566518765,0.0
3077,-0.0971195269532639,0.0
3078,0.057914624724012764,0.0
3079,0.01860778782013621,0.0
3080,0.004915653099496307,0.0
3081,0.14106743086230714,0.0
3082,0.06682938481503373,0.0
3083,0.15962856582933177,0.0
3084,3.2891730163232915,0.0
3085,6.290827189170952,0.0
3086,-2.6365077868925026,0.0
3087,0.9739196230165434,0.0
3088,-0.3017365294808863,0.0
3089,0.24566936070418585,0.0
3090,-0.023409152308557155,0.0
3091,0.003924891657731695,0.0
3092,0.01631415406959153,0.0
3093,0.02138243030396221,0.0
3094,0.058505432530744764,0.0
3095,0.022801095416545077,0.0
3096,0.10125872027557191,0.0
3097,0.0996441629726399,0.0
3098,0.09263387899623772,0.0
3099,0.012639032102349415,0.0
3100,0.536738777440967,0.0
3101,5.508294274025439,0.0
3102,3.696544368365096,0.0
3103,-2.7022988104868015,0.0
3104,1.6340627748066647,0.0
3105,-0.7190729539837863,0.0
3106,0.4060656845261394,0.0
3107,0.006633349375124123,0.0
3108,-0.020199660262701563,0.0
3109,0.04311389616077196,0.0
3110,0.07845601964224296,0.0
3111,-0.020419619118864522,0.0
3112,0.029622681528362324,0.0
3113,-0.0539505505293478,0.0
3114,-0.04834082609908765,0.0
3115,0.11488003773775989,0.0
3116,0.040969964891457565,0.0
3117,1.5554008120782876,0.0
3118,6.887424251722968,0.0
3119,0.01874414297042217,0.0
3120,-1.121067905385351,0.0
3121,0.8245211739232521,0.0
3122,-0.4410574485942756,0.0
3123,0.21332544022177322,0.0
3124,-0.06475122945877212,0.0
3125,0.03672998055398657,0.0
3126,0.05115820281022277,0.0
3127,0.1300822714341779,0.0
3128,-0.04624864847882305,0.0
3129,0.04596473771185805,0.0
3130,-0.05424278902831943,0.0
3131,0.07099395167604022,0.0
3132,0.0548656568739499,0.0
3133,0.2420730920892621,0.0
3134,3.378037239706367,0.0
3135,6.393590574224009,0.0
3136,-2.6700480843284184,0.0
3137,1.024683592094933,0.0
3138,-0.3255320341935952,0.0
3139,0.1279257109097243,0.0
3140,0.11894970337243632,0.0
3141,0.049077917850197036,0.0
3142,0.05445049674092886,0.0
3143,0.02796030891568018,0.0
3144,0.14907328634271833,0.0
3145,0.0261321982333845,0.0
3146,0.08082127400155786,0.0
3147,-0.004576824821524796,0.0
3148,0.060198332873242846,0.0
3149,-0.017321128371130784,0.0
3150,0.5815123619217664,0.0
3151,5.403232097719047,0.0
3152,3.697193036251362,0.0
3153,-2.7273044830325737,0.0
3154,1.6908266965929928,0.0
3155,-0.7450162930639547,0.0
3156,0.3959613354438303,0.0
3157,-0.046249256766850974,0.0
3158,0.03187994825298175,0.0
3159,0.031498868805423796,0.0
3160,0.01663309527834001,0.0
3161,0.013012109657736137,0.0
3162,0.012379080034747275,0.0
3163,0.08529413744313699,0.0
3164,0.029224465620845155,0.0
3165,-0.0022588396130280367,0.0
3166,0.07217981544881835,0.0
3167,1.4965608428245685,0.0
3168,6.857003744383568,0.0
3169,0.1022213411085845,0.0
3170,-1.0173657628706554,0.0
3171,0.8491056522766937,0.0
3172,-0.3714425126948988,0.0
3173,0.28262441825434403,0.0
3174,-0.027059980344901924,0.0
3175,0.0889585896925636,0.0
3176,-0.009795560126630534,0.0
3177,-0.030135948958405167,0.0
3178,0.11517893507676032,0.0
3179,0.033748632480782664,0.0
3180,0.021568548869576175,0.0
3181,-0.03314399734874272,0.0
3182,0.06866811043564024,0.0
3183,0.1743414365307304,0.0
3184,3.371718731680654,0.0
3185,6.353871846420399,0.0
3186,-2.6271614214615133,0.0
3187,1.0095350969069905,0.0
3188,-0.24293127276772758,0.0
3189,0.10348710832878973,0.0
3190,0.009231460585851184,0.0
3191,0.19250732115808247,0.0
3192,0.004802790941390299,0.0
3193,0.06027344107122469,0.0
3194,0.03227872433962229,0.0
3195,-0.020776499190122862,0.0
3196,0.017823452793193292,0.0
3197,0.0023652027959382834,0.0
3198,0.012245605564342794,0.0
3199,-0.020308108713786344,0.0
3200,0.5311056996505128,0.0
3201,5.431720054094409,0.0
3202,3.6986436515465364,0.0
3203,-2.8462748079808993,0.0
3204,1.565741313309924,0.0
3205,-0.7323394223574843,0.0
3206,0.3094884214686498,0.0
3207,-0.10574317903477955,0.0
3208,0.03486451473549172,0.0
3209,-0.014154118983711833,0.0
3210,0.02416804542730319,0.0
3211,-0.03619362618782181,0.0
3212,0.012778569476594025,0.0
3213,0.006423320362594706,0.0
3214,-0.02029692773584118,0.0
3215,-0.1280667904987354,0.0
3216,0.024899541355610094,0.0
3217,1.4769326095559023,0.0
3218,6.897781331251009,0.0
3219,0.04066078957131626,0.0
3220,-1.0114768750693635,0.0
3221,0.9013764927003931,0.0
3222,-0.3887572038209354,0.0
3223,0.11852223812645041,0.0
3224,-0.11083448329570292,0.0
3225,0.03496214913093611,0.0
3226,-0.029340307836537967,0.0
3227,0.0971378450233646,0.0
3228,-0.013529012037719642,0.0
3229,-0.08360288592718496,0.0
3230,-0.013267711389093245,0.0
3231,-0.06582993854248903,0.0
3232,0.029117599042894123,0.0
3233,0.13049864865470007,0.0
3234,3.3497404984444468,0.0
3235,6.44250436785507,0.0
3236,-2.583414306732285,0.0
3237,0.9986861698100078,0.0
3238,-0.3368845735263439,0.0
3239,0.09172675553183081,0.0
3240,-0.030590852729973722,0.0
3241,0.015443676676115417,0.0
3242,-0.03251219405377136,0.0
3243,0.12923925824055918,0.0
3244,0.029632485594166307,0.0
3245,-0.03732590437627065,0.0
3246,0.03597316413600632,0.0
3247,0.013946265473450598,0.0
3248,0.009663317876928944,0.0
3249,0.11934598966905849,0.0
3250,0.49944907316169135,0.0
3251,5.467203800726108,0.0
3252,3.6595506783672542,0.0
3253,-2.723191340872783,0.0
3254,1.6006832904334052,0.0
3255,-0.8794931051055925,0.0
3256,0.34504031425698434,0.0
3257,-0.22264583845754576,0.0
3258,0.018640673840671602,0.0
3259,-0.007569895702295694,0.0
3260,0.0004568195100444067,0.0
3261,-0.016945266527676296,0.0
3262,-0.07414537488710135,0.0
3263,-0.14431777971534201,0.0
3264,-0.07154669282614409,0.0
3265,0.02742129299159402,0.0
3266,-0.058855492230236506,0.0
3267,1.4991855844874293,0.0
3268,6.8211250733162805,0.0
3269,0.1512515844570039,0.0
3270,-1.0507217964798659,0.0
3271,0.8493399103788892,0.0
3272,-0.3867758195528954,0.0
3273,0.3110128265975406,0.0
3274,0.04702227040115932,0.0
3275,0.013704362796365992,0.0
3276,0.005178230191025458,0.0
3277,0.11016390831231855,0.0
3278,0.059178733161834786,0.0
3279,-0.061442228719774186,0.0
3280,-0.06571220989580355,0.0
3281,0.025704290717696934,0.0
3282,-0.11298526545664873,0.0
3283,0.05999040465455814,0.0
3284,3.366338190166078,0.0
3285,6.268986998437525,0.0
3286,-2.619437444380621,0.0
3287,0.8825639738619611,0.0
3288,-0.24911368571423104,0.0
3289,0.16409685568943083,0.0
3290,-0.023402791595542222,0.0
3291,0.09709310981788595,0.0
3292,0.0057467214074780545,0.0
3293,0.1293562996392969,0.0
3294,-0.005747812834468943,0.0
3295,0.09114572184564046,0.0
3296,0.13408074862656022,0.0
3297,0.013871064525755834,0.0
3298,-0.02613266556246507,0.0
3299,0.0028589677785287922,0.0
3300,0.4532316480180566,0.0
3301,5.475683059590243,0.0
3302,3.67299835782054,0.0
3303,-2.705018761854013,0.0
3304,1.6147483890984098,0.0
3305,-0.7198161090692676,0.0
3306,0.3967768044939558,0.0
3307,-0.09513361125324896,0.0
3308,-0.003206003707373388,0.0
3309,0.06429679943516484,0.0
3310,0.08985768300587751,0.0
3311,0.09873006860477779,0.0
3312,0.023804030974033226,0.0
3313,0.05876768432872374,0.0
3314,0.027243268102177275,0.0
3315,0.08801412998970738,0.0
3316,0.031125722765066255,0.0
3317,1.5671919945221788,0.0
3318,6.895414474595716,0.0
3319,0.03942719796140234,0.0
3320,-0.8318012618664807,0.0
3321,0.9090971590562902,0.0
3322,-0.3782059712124445,0.0
3323,0.24744432965753194,0.0
3324,0.056029821941268314,0.0
3325,0.0905830393181486,0.0
3326,-0.0063714774270223345,0.0
3327,0.026308663258888365,0.0
3328,-0.012500031749334076,0.0
3329,0.0071168684473942034,0.0
3330,0.04654248415136989,0.0
3331,0.015019010382332429,0.0
3332,-0.04778839444059793,0.0
3333,0.08575138330732035,0.0
3334,3.3446155976302503,0.0
3335,6.379969507152448,0.0
3336,-2.635305385660925,0.0
3337,1.0293781952712244,0.0
3338,-0.2392009543836878,0.0
3339,0.2414091783552016,0.0
3340,-0.07212872195491166,0.0
3341,0.0951847440261218,0.0
3342,0.08592835834153256,0.0
3343,0.16019472852994404,0.0
3344,0.08526305409329145,0.0
3345,0.02274713352644589,0.0
3346,0.048394150401269265,0.0
3347,0.05830377703395538,0.0
3348,0.10722677987094212,0.0
3349,0.043434390374480825,0.0
3350,0.5830345518162012,0.0
3351,5.506812269095967,0.0
3352,3.6260866731980794,0.0
3353,-2.5722728013073426,0.0
3354,1.6105497665458655,0.0
3355,-0.781196380395721,0.0
3356,0.40689007527256704,0.0
3357,-0.016634246040184313,0.0
3358,0.019422569336458653,0.0
3359,0.02346859833961103,0.0
3360,-0.010400295807852865,0.0
3361,0.0708588969846824,0.0
3362,0.06775285737141037,0.0
3363,0.04246060474739542,0.0
3364,0.06570378781990363,0.0
3365,0.013207689773529992,0.0
3366,0.027673429487362625,0.0
3367,1.5239077291682905,0.0
3368,6.881310419081728,0.0
3369,-0.06773962090740077,0.0
3370,-1.0875572435789078,0.0
3371,0.8144201817438365,0.0
3372,-0.3190761198985984,0.0
3373,0.3477082743880222,0.0
3374,0.11352580243240004,0.0
3375,0.05815705805728397,0.0
3376,0.06369995201169971,0.0
3377,0.03017402702817469,0.0
3378,0.08053158126894246,0.0
3379,0.08438863667770607,0.0
3380,0.08604854129247232,0.0
3381,0.050753485360216566,0.0
3382,0.0406988810199242,0.0
3383,0.10238959310381755,0.0
3384,3.426786694040744,0.0
3385,6.3972723554553586,0.0
3386,-2.6677675931382767,0.0
3387,0.9798562421794366,0.0
3388,-0.2517624967216559,0.0
3389,0.10715145762796817,0.0
3390,-0.09277759784522724,0.0
3391,0.0034189460984232097,0.0
3392,-0.06831811482423482,0.0
3393,-0.02074942011961501,0.0
3394,-0.04340375850608303,0.0
3395,0.037835799800933226,0.0
3396,0.004638728219809161,0.0
3397,0.060081482619312176,0.0
3398,0.04150825351323337,0.0
3399,0.017840885856618485,0.0
3400,0.5991445967939393,0.0
3401,5.522664168258358,0.0
3402,3.489118812091533,0.0
3403,-2.7105114595100255,0.0
3404,1.6178710136595011,0.0
3405,-0.7651465412128968,0.0
3406,0.31127423352009365,0.0
3407,-0.07057551704293258,0.0
3408,0.0010625477491590651,0.0
3409,-0.015491168091743548,0.0
3410,0.06691637219759206,0.0
3411,0.1338169511106884,0.0
3412,0.05904041248298184,0.0
3413,-0.006383927907698169,0.0
3414,0.032048197860357924,0.0
3415,-0.07146999268255985,0.0
3416,0.06106857145515616,0.0
3417,1.5898813456006926,0.0
3418,6.848104964292024,0.0
3419,-0.14231743651136175,0.0
3420,-0.9807214135890029,0.0
3421,0.7381105065169971,0.0
3422,-0.3745478457172454,0.0
3423,0.19244647577821053,0.0
3424,0.017477827297216142,0.0
3425,0.011238165369105737,0.0
3426,-0.03126674081161743,0.0
3427,0.01824258948850542,0.0
3428,0.040346457455766226,0.0
3429,0.013759299921693183,0.0
3430,0.04951432840214016,0.0
3431,0.09795725034841984,0.0
3432,0.05930030069491847,0.0
3433,0.05559539377881091,0.0
3434,3.454375941827721,0.0
3435,6.362206969190636,0.0
3436,-2.545026752692666,0.0
3437,1.0664940032588375,0.0
3438,-0.3638050882239329,0.0
3439,0.08614544107768174,0.0
3440,0.08245105562796629,0.0
3441,0.1074360142465159,0.0
3442,-0.023360830682903143,0.0
3443,0.11264096302737456,0.0
3444,0.06788789002865754,0.0
3445,-0.006922075359179741,0.0
3446,-0.006367165719715628,0.0
3447,0.0012646738572030108,0.0
3448,0.14623128560499377,0.0
3449,-0.028009931745871672,0.0
3450,0.43189359428083185,0.0
3451,5.538320519039138,0.0
3452,3.5255962275534034,0.0
3453,-2.682112710233396,0.0
3454,1.551265741730559,0.0
3455,-0.771580829283177,0.0
3456,0.35828356744122175,0.0
3457,-0.14216670291575445,0.0
3458,0.06458958684516089,0.0
3459,0.007502108031007676,0.0
3460,0.06732173728182456,0.0
3461,0.09624990395805108,0.0
3462,0.042309770994692436,0.0
3463,0.06891064050504687,0.0
3464,0.11919590735254947,0.0
3465,0.16041057986390123,0.0
3466,0.07826309533084688,0.0
3467,1.5634771274067174,0.0
3468,6.955454362302915,0.0
3469,-0.04030749760850212,0.0
3470,-0.9882483989489184,0.0
3471,0.7775347450756538,0.0
3472,-0.35299969315070817,0.0
3473,0.2721462294630256,0.0
3474,-0.031395756246393576,0.0
3475,-0.01948021684189346,0.0
3476,0.02254950106402883,0.0
3477,0.01010967229121677,0.0
3478,0.05116982367131144,0.0
3479,-0.0494093719288333,0.0
3480,0.03533888225822306,0.0
3481,0.00557904325825179,0.0
3482,0.0007086810645653488,0.0
3483,0.10304676936295862,0.0
3484,3.4923617047641784,0.0
3485,6.352951986954497,0.0
3486,-2.588227304932749,0.0
3487,1.0335104419075873,0.0
3488,-0.25922957589410156,0.0
3489,0.14584853867338277,0.0
3490,-0.014776336599817037,0.0
3491,0.06696898798395434,0.0
3492,0.05102994833666044,0.0
3493,0.04059312711118536,0.0
3494,0.0115813901584602,0.0
3495,-0.03341873142746863,0.0
3496,0.09965141301856324,0.0
3497,0.013235812993895566,0.0
3498,0.021020427431184704,0.0
3499,-0.006685429581078435,0.0
3500,0.4639318209049103,0.0
3501,5.537755410436742,0.0
3502,3.5582646240481446,0.0
3503,-2.6872951003898593,0.0
3504,1.5307259366405368,0.0
3505,-0.7185633449919309,0.0
3506,0.4167731099752586,0.0
3507,-0.01948620444966251,0.0
3508,0.08492749865888469,0.0
3509,-0.02907028667044776,0.0
3510,-0.015228960035045244,0.0
3511,0.07836835365917028,0.0
3512,0.008467192104265726,0.0
3513,0.06300610262614383,0.0
3514,0.1597220072952399,0.0
3515,0.03806318903383781,0.0
3516,0.13402824125600996,0.0
3517,1.7191498885698764,0.0
3518,6.9527992308215705,0.0
3519,-0.11951281030330291,0.0
3520,-1.0124618505022447,0.0
3521,0.8239782790306457,0.0
3522,-0.4151921383668052,0.0
3523,0.1881684046603694,0.0
3524,0.05639970374130817,0.0
3525,0.13478189844502125,0.0
3526,0.042984263709402754,0.0
3527,-0.03309262282163354,0.0
3528,0.10245881656573587,0.0
3529,-0.037370754726811006,0.0
3530,0.037322173522494756,0.0
3531,0.02380904237256555,0.0
3532,-0.052184139559591544,0.0
3533,0.1844230748517579,0.0
3534,3.58033964558353,0.0
3535,6.348647694406952,0.0
3536,-2.6541425696552032,0.0
3537,1.2295696856886082,0.0
3538,-0.295406274865456,0.0
3539,0.21445760519850512,0.0
3540,0.033482275839832334,0.0
3541,0.061083985008493165,0.0
3542,0.10166513111705079,0.0
3543,0.1249198269409608,0.0
3544,0.1421198340240117,0.0
3545,0.09492504555193286,0.0
3546,-0.011454617082353721,0.0
3547,0.05395141179845605,0.0
3548,0.13822043159653713,0.0
3549,0.09312160861134988,0.0
3550,0.6358109101614277,0.0
3551,5.581061250652301,0.0
3552,3.6112330467502995,0.0
3553,-2.7033203254659615,0.0
3554,1.6873115540752528,0.0
3555,-0.709942535603372,0.0
3556,0.37218470523985225,0.0
3557,-0.05656802704013379,0.0
3558,0.009778694675925348,0.0
3559,-0.010622958608763881,0.0
3560,0.02598161631386422,0.0
3561,0.05444271248896931,0.0
3562,0.0938631844514825,0.0
3563,0.05612331469146209,0.0
3564,0.08362615856686934,0.0
3565,0.01356178791818323,0.0
3566,0.05513319334424842,0.0
3567,1.7578125464184091,0.0
3568,6.9697582562800875,0.0
3569,-0.008272713675429949,0.0
3570,-0.9351636180202039,0.0
3571,0.8913936902015984,0.0
3572,-0.30038018815693274,0.0
3573,0.3254947159053051,0.0
3574,-0.015435057498002482,0.0
3575,0.1374469801943311,0.0
3576,0.07473480829746795,0.0
3577,0.19897159155317476,0.0
3578,0.08193314453073264,0.0
3579,0.12127098197211904,0.0
3580,0.038382129032691,0.0
3581,0.11554430856823487,0.0
3582,0.009250028547610437,0.0
3583,0.22394895365494005,0.0
3584,3.479670314004707,0.0
3585,6.2929049766239595,0.0
3586,-2.6343915709854278,0.0
3587,1.1460870823793456,0.0
3588,-0.17534583115669528,0.0
3589,0.2541996374839589,0.0
3590,0.07800877567344444,0.0
3591,0.07095654837653304,0.0
3592,0.06393977142283885,0.0
3593,0.045413614562260944,0.0
3594,0.07162133519899383,0.0
3595,0.14214467707396286,0.0
3596,0.09160882539644959,0.0
3597,0.037701278116077146,0.0
3598,0.024630613422157534,0.0
3599,0.04196230012824864,0.0
3600,0.5785307017657326,0.0
3601,5.6465319638225,0.0
3602,3.4622273104464982,0.0
3603,-2.7069663614739095,0.0
3604,1.6026625472937654,0.0
3605,-0.7746191388884023,0.0
3606,0.41485055695365564,0.0
3607,0.042716930489495056,0.0
3608,0.04423977512268511,0.0
3609,0.018490684382278,0.0
3610,0.04650738245454957,0.0
3611,0.12253311326274552,0.0
3612,0.1115742304356348,0.0
3613,0.07290352900644806,0.0
3614,0.13017318825527513,0.0
3615,0.038722744759514094,0.0
3616,0.02429540963405416,0.0
3617,1.5891324976976635,0.0
3618,6.965493332800155,0.0
3619,-0.1724248661975886,0.0
3620,-0.8613738966285257,0.0
3621,0.7729623163634016,0.0
3622,-0.30668194854770026,0.0
3623,0.15783157017156432,0.0
3624,0.08782945720503435,0.0
3625,0.02920035130844973,0.0
3626,-0.026185430979828186,0.0
3627,0.054692441197448274,0.0
3628,0.039243977503135276,0.0
3629,0.07771529963289626,0.0
3630,0.04209442311909622,0.0
3631,0.10370173165098559,0.0
3632,-0.024299287725166617,0.0
3633,0.12924150286470001,0.0
3634,3.5872664810523585,0.0
3635,6.303365891128265,0.0
3636,-2.642092612356088,0.0
3637,1.0666750668627456,0.0
3638,-0.3110310948034849,0.0
3639,0.1236205586797145,0.0
3640,0.03364529066209197,0.0
3641,0.1807004607131827,0.0
3642,0.013790740954248808,0.0
3643,0.1118693799883517,0.0
3644,-0.0034708460595867727,0.0
3645,0.03829598113570355,0.0
3646,0.1053824227154759,0.0
3647,0.07276971307294582,0.0
3648,0.00491227421107731,0.0
3649,0.05166498091348894,0.0
3650,0.5385007532053824,0.0
3651,5.546438218050039,0.0
3652,3.485966461758088,0.0
3653,-2.677100362499452,0.0
3654,1.6108894644578498,0.0
3655,-0.7853391495572476,0.0
3656,0.38401316512789285,0.0
3657,-0.02384013559311372,0.0
3658,0.15737383747964653,0.0
3659,0.010735349161436758,0.0
3660,0.12317571681382003,0.0
3661,0.14840853167796358,0.0
3662,0.053549499105695356,0.0
3663,0.10531511103538416,0.0
3664,0.13739488467327135,0.0
3665,0.19428548799687917,0.0
3666,0.1661581728542996,0.0
3667,1.7481591455562797,0.0
3668,6.984616102570174,0.0
3669,-0.0475404052076369,0.0
3670,-0.7970384195622098,0.0
3671,0.8070295175828529,0.0
3672,-0.3761481047624121,0.0
3673,0.18000947990707994,0.0
3674,-0.048307722081626585,0.0
3675,0.05310997388081771,0.0
3676,0.018998652539495214,0.0
3677,0.054707870521597424,0.0
3678,0.043946382619877905,0.0
3679,0.04267960882702995,0.0
3680,-0.004706847863481783,0.0
3681,-0.022570704074325258,0.0
3682,0.043799139829727725,0.0
3683,0.20465066010945815,0.0
3684,3.5321902181966105,0.0
3685,6.402902854206311,0.0
3686,-2.6998547274823745,0.0
3687,1.0569221031995841,0.0
3688,-0.3571726949294255,0.0
3689,0.16264190191876163,0.0
3690,0.014527734935388753,0.0
3691,0.09741819507709949,0.0
3692,0.05880567781304568,0.0
3693,0.11885706247185251,0.0
3694,0.07317143833657454,0.0
3695,0.07581107226274464,0.0
3696,0.0683603068089744,0.0
3697,0.05478027620805281,0.0
3698,0.02551178648558909,0.0
3699,0.029952688875085655,0.0
3700,0.6183554152701269,0.0
3701,5.6661664331100745,0.0
3702,3.5003855687840533,0.0
3703,-2.701311698363382,0.0
3704,1.6014586548975251,0.0
3705,-0.7471643292201358,0.0
3706,0.34685052419448215,0.0
3707,-0.11059413447245281,0.0
3708,0.07718026531515654,0.0
3709,0.015916314376229864,0.0
3710,0.05047581561075485,0.0
3711,0.005368479451010343,0.0
3712,0.0005758349108207425,0.0
3713,-0.007423739987120426,0.0
3714,0.0037107739065783824,0.0
3715,0.056356836651521476,0.0
3716,-0.005900987932441849,0.0
3717,1.6816567744228408,0.0
3718,6.937184314383795,0.0
3719,-0.1831669807818879,0.0
3720,-0.7753652087819665,0.0
3721,0.7466836599209357,0.0
3722,-0.40090007887123447,0.0
3723,0.19937231442035222,0.0
3724,-0.03933976240788982,0.0
3725,0.10368851390597006,0.0
3726,0.04144778401600375,0.0
3727,0.10519050279384745,0.0
3728,0.04293195269129905,0.0
3729,0.05277064332480754,0.0
3730,0.0006843435146289024,0.0
3731,-0.02321187427285306,0.0
3732,0.09809272170068235,0.0
3733,0.04186753398413902,0.0
3734,3.487743804579716,0.0
3735,6.2494196181564625,0.0
3736,-2.709623357947479,0.0
3737,1.087332920804045,0.0
3738,-0.3174427756771963,0.0
3739,0.13291434384381803,0.0
3740,0.005825619100391937,0.0
3741,0.09908527654589669,0.0
3742,0.10311282925414599,0.0
3743,0.02394192766732773,0.0
3744,0.05085899807134742,0.0
3745,0.14174455168506966,0.0
3746,0.056021426585664336,0.0
3747,0.05975622090160355,0.0
3748,0.049355645148239244,0.0
3749,0.0887773129689671,0.0
3750,0.6207228912773891,0.0
3751,5.625268470590615,0.0
3752,3.4298117645385844,0.0
3753,-2.6837543756776823,0.0
3754,1.5908710830822097,0.0
3755,-0.7708129879397946,0.0
3756,0.3493388678401711,0.0
3757,-0.0255103851261299,0.0
3758,-0.013475278029298196,0.0
3759,-0.05972962835577511,0.0
3760,0.07198158904828651,0.0
3761,0.0030110727607029868,0.0
3762,-0.005857193889551977,0.0
3763,-0.009747404087466893,0.0
3764,-0.04900798429908576,0.0
3765,0.07811227023471082,0.0
3766,0.11110195539776054,0.0
3767,1.6581979611914495,0.0
3768,6.875273076992218,0.0
3769,-0.25874203116123395,0.0
3770,-0.8958335912778074,0.0
3771,0.7467224056584514,0.0
3772,-0.3143764573796285,0.0
3773,0.11099579943662533,0.0
3774,-0.01288811814021857,0.0
3775,0.03358662750482643,0.0
3776,-0.0073850141977594395,0.0
3777,0.060720021317441586,0.0
3778,0.09137425517458161,0.0
3779,0.0338336038266716,0.0
3780,0.0016530185404350917,0.0
3781,0.013719355624831259,0.0
3782,0.10501864123160198,0.0
3783,0.1428626614948066,0.0
3784,3.6129452413000123,0.0
3785,6.247185570727809,0.0
3786,-2.675465100886003,0.0
3787,1.1078394580024318,0.0
3788,-0.3204198275522187,0.0
3789,0.18493508471691217,0.0
3790,-0.064885537633091,0.0
3791,0.08918160618893148,0.0
3792,0.04022192637935522,0.0
3793,-0.06628045325265562,0.0
3794,0.06522152745398156,0.0
3795,0.00363285745671127,0.0
3796,-0.03618153149527679,0.0
3797,0.0183714544683752,0.0
3798,-0.006763187291453741,0.0
3799,0.00491499329790239,0.0
3800,0.4715058948295375,0.0
3801,5.637000806247905,0.0
3802,3.321292286027281,0.0
3803,-2.693254754466423,0.0
3804,1.5825478723995576,0.0
3805,-0.8074145183567537,0.0
3806,0.4047136729945411,0.0
3807,-0.09868181525534982,0.0
3808,0.12932787945517327,0.0
3809,0.03863678397267354,0.0
3810,0.04541089063278155,0.0
3811,0.07134270177367955,0.0
3812,0.1477179714026308,0.0
3813,0.028382226537286667,0.0
3814,0.07285527393770819,0.0
3815,0.06910596239832734,0.0
3816,0.06812506058812397,0.0
3817,1.6692571540799144,0.0
3818,7.021059603165253,0.0
3819,-0.24615128243097106,0.0
3820,-0.8992412505822422,0.0
3821,0.8064738866138214,0.0
3822,-0.48052153515477847,0.0
3823,0.1250378277597206,0.0
3824,-0.015892912169915962,0.0
3825,-0.051980078136189455,0.0
3826,-0.056483625635224924,0.0
3827,0.069649234920033,0.0
3828,0.039792566744957195,0.0
3829,0.03581735935596354,0.0
3830,0.06408985280664481,0.0
3831,-0.017207552838024637,0.0
3832,0.019165585195358766,0.0
3833,0.1912235142709131,0.0
3834,3.5440355862536284,0.0
3835,6.240219917355271,0.0
3836,-2.6925584201248522,0.0
3837,0.999524539818004,0.0
3838,-0.43489915118095673,0.0
3839,0.17899651510058048,0.0
3840,-0.0055133282919110245,0.0
3841,-0.007393563029365807,0.0
3842,0.06345178920226906,0.0
3843,0.15957652218747215,0.0
3844,0.000773678698559304,0.0
3845,-0.029353331541106954,0.0
3846,-0.00979874824501601,0.0
3847,0.0755238944095439,0.0
3848,0.00506482640705384,0.0
3849,-0.012571720019918325,0.0
3850,0.49040147675561907,0.0
3851,5.587661555981413,0.0
3852,3.336276728036564,0.0
3853,-2.73465554494613,0.0
3854,1.5367302760513435,0.0
3855,-0.7727797802456333,0.0
3856,0.37330823435100563,0.0
3857,-0.14819610233007285,0.0
3858,-0.03651455528221244,0.0
3859,-0.04991533784058572,0.0
3860,-0.036158816194991894,0.0
3861,-0.011210900270347122,0.0
3862,-0.026541354473803864,0.0
3863,-0.03063183753713679,0.0
3864,-0.07205475611359731,0.0
3865,0.02018735585770788,0.0
3866,-0.08484770353652313,0.0
3867,1.6966235870376982,0.0
3868,6.815435408528758,0.0
3869,-0.2538866959924952,0.0
3870,-0.7925419910738275,0.0
3871,0.6972321683190248,0.0
3872,-0.307334803148044,0.0
3873,0.29401695554863383,0.0
3874,0.10427772193616529,0.0
3875,0.03937285708055055,0.0
3876,-0.001303704034056767,0.0
3877,0.03350438737956337,0.0
3878,0.018875678218632445,0.0
3879,-0.05179379382345868,0.0
3880,0.014544178841371436,0.0
3881,0.03601659040120118,0.0
3882,-0.00014899079080250323,0.0
3883,0.14070556910533324,0.0
3884,3.5840568183222583,0.0
3885,6.119480043391033,0.0
3886,-2.7296231472077825,0.0
3887,1.1319474811280743,0.0
3888,-0.35979802172727565,0.0
3889,0.1670899725411216,0.0
3890,-0.0880364546424079,0.0
3891,0.08586789730148771,0.0
3892,0.026091644964251967,0.0
3893,0.03211298033038878,0.0
3894,0.11982682322333532,0.0
3895,0.19329672604544745,0.0
3896,0.08054204559963633,0.0
3897,0.070885421660313,0.0
3898,0.10321139690862571,0.0
3899,0.1332210656174007,0.0
3900,0.6641386016651214,0.0
3901,5.6922675652671355,0.0
3902,3.249995353864302,0.0
3903,-2.557309202025929,0.0
3904,1.6069155793813616,0.0
3905,-0.7036789150912833,0.0
3906,0.4609941870729486,0.0
3907,-0.11629131354120029,0.0
3908,0.0936844050842948,0.0
3909,-0.018715782513563012,0.0
3910,0.03997365848316107,0.0
3911,0.02786148210062579,0.0
3912,0.010546696046687884,0.0
3913,0.07741650549283347,0.0
3914,-0.003248617487414379,0.0
3915,-0.05239050500504389,0.0
3916,-0.010494228383380898,0.0
3917,1.7001243487428934,0.0
3918,6.9928312106458135,0.0
3919,-0.2713252172061524,0.0
3920,-0.8017008053824228,0.0
3921,0.7723998993813384,0.0
3922,-0.2809487341655534,0.0
3923,0.23267320359891003,0.0
3924,0.03444620986531,0.0
3925,0.09176439412569826,0.0
3926,0.12694629532863672,0.0
3927,0.07552725258792886,0.0
3928,0.09194780064136027,0.0
3929,0.08778906423459928,0.0
3930,0.0021252200991877385,0.0
3931,-0.018823358922279647,0.0
3932,0.12490957203623285,0.0
3933,0.19111747479031188,0.0
3934,3.602756168767286,0.0
3935,6.221403299070151,0.0
3936,-2.752561801312611,0.0
3937,1.179929784343469,0.0
3938,-0.3362494604231101,0.0
3939,0.27246201000697184,0.0
3940,-0.029467768265037098,0.0
3941,0.04766761234301317,0.0
3942,0.10018108710404011,0.0
3943,0.044268226005736475,0.0
3944,-0.017050835229257932,0.0
3945,0.0640181155793152,0.0
3946,0.02681858770800789,0.0
3947,0.012770032972752723,0.0
3948,-0.11085097139063516,0.0
3949,0.05414820743160498,0.0
3950,0.6653649657818862,0.0
3951,5.7094072504048885,0.0
3952,3.360788946128274,0.0
3953,-2.6165264005404834,0.0
3954,1.4927479568524546,0.0
3955,-0.7728546796145899,0.0
3956,0.34443781361131226,0.0
3957,-0.20587640191557427,0.0
3958,0.18353431928120392,0.0
3959,0.09100379792973554,0.0
3960,0.06224760803895507,0.0
3961,0.054763501819359545,0.0
3962,0.10915460538598233,0.0
3963,0.03208599768855908,0.0
3964,0.09982048588453055,0.0
3965,0.06602426134492306,0.0
3966,0.06754797172843924,0.0
3967,1.644383507392536,0.0
3968,7.006164416970824,0.0
3969,-0.2257349335618034,0.0
3970,-0.7683561065185567,0.0
3971,0.7598923937288002,0.0
3972,-0.39271974596461473,0.0
3973,0.15279050196161398,0.0
3974,0.0009060017016319852,0.0
3975,-0.02303312823752465,0.0
3976,-0.009095108621728505,0.0
3977,0.023253239607627253,0.0
3978,-0.018467166927077453,0.0
3979,-0.04299659343231292,0.0
3980,-0.08285667850223141,0.0
3981,0.023960297748575533,0.0
3982,0.011157469971586481,0.0
3983,-0.0007701755710489283,0.0
3984,3.5110929602716783,0.0
3985,6.202899737559707,0.0
3986,-2.84383322728352,0.0
3987,1.0360474834513664,0.0
3988,-0.4790943778490877,0.0
3989,0.0676974710358379,0.0
3990,-0.18566096145390687,0.0
3991,-0.10990189771838901,0.0
3992,-0.02530165725973571,0.0
3993,-0.1040553724807573,0.0
3994,-0.1018246709396568,0.0
3995,-0.13943849318040097,0.0
3996,-0.007825542126577177,0.0
3997,0.02010767112932195,0.0
3998,-0.09978465649473406,0.0
3999,-0.07680401214072886,0.0
4000,0.5125448311863242,0.0
4001,5.655649183347799,0.0
4002,3.196792287803637,0.0
4003,-2.6788442204786063,0.0
4004,1.4043929336056906,0.0
4005,-0.8265291083564315,0.0
4006,0.32810279066900483,0.0
4007,-0.14882921901088034,0.0
4008,0.020236238466494735,0.0
4009,0.022684522613541293,0.0
4010,0.02260758340223326,0.0
4011,-0.017359277289728067,0.0
4012,-0.029926722613703476,0.0
4013,0.018089809747894075,0.0
4014,-0.026487347210619745,0.0
4015,0.028536299159771315,0.0
4016,0.06296304098095576,0.0
4017,1.6583690266317117,0.0
4018,6.932947397890853,0.0
4019,-0.39883263023686333,0.0
4020,-0.7850830622440385,0.0
4021,0.7456224285868851,0.0
4022,-0.41671923130461447,0.0
4023,0.1090194803973834,0.0
4024,-0.1069503537341655,0.0
4025,0.040760481248148364,0.0
4026,-0.06598696845355663,0.0
4027,0.037021878375453884,0.0
4028,0.04479068924378243,0.0
4029,-0.009376242893053536,0.0
4030,-0.025333616139576576,0.0
4031,-0.025669081122175776,0.0
4032,0.011582587811640972,0.0
4033,0.06426269323653538,0.0
4034,3.5326071994837602,0.0
4035,6.108500801686763,0.0
4036,-2.9398671279809037,0.0
4037,1.105446153206383,0.0
4038,-0.442495806386227,0.0
4039,0.07455461112039488,0.0
4040,-0.0818243070483261,0.0
4041,-0.04744381604900556,0.0
4042,-0.027069523656485288,0.0
4043,-0.03472140513050548,0.0
4044,0.013539838053538443,0.0
4045,-0.08551386404057588,0.0
4046,-0.09878201340638235,0.0
4047,-0.016099442936639563,0.0
4048,-0.05717699473133422,0.0
4049,-0.01634039780617986,0.0
4050,0.5112735269116182,0.0
4051,5.655962783982581,0.0
4052,3.1657871750536537,0.0
4053,-2.6765618569600416,0.0
4054,1.4811984926308104,0.0
4055,-0.8711130927835282,0.0
4056,0.29463044456502185,0.0
4057,-0.11807148668502913,0.0
4058,-0.03738890830450549,0.0
4059,-0.032957049366524965,0.0
4060,0.03355917053226023,0.0
4061,0.033449858436560856,0.0
4062,0.0061806322971396255,0.0
4063,0.005529753884519725,0.0
4064,0.030634482245060192,0.0
4065,-0.017728264949914682,0.0
4066,0.014031969468886477,0.0
4067,1.6316834614550155,0.0
4068,6.9432536946338885,0.0
4069,-0.32781525234335424,0.0
4070,-0.8380895154112059,0.0
4071,0.6738813989033711,0.0
4072,-0.33331645670290666,0.0
4073,0.205464624793338,0.0
4074,-0.06128037089960042,0.0
4075,-0.09715762776231066,0.0
4076,-0.09209498737162969,0.0
4077,-0.1284794333797499,0.0
4078,-0.08095471001127495,0.0
4079,-0.015025936987480594,0.0
4080,-0.05366758958478663,0.0
4081,-0.12482345343205485,0.0
4082,-0.031719639584371226,0.0
4083,-0.012232172434628888,0.0
4084,3.4748607769679047,0.0
4085,6.015627187481695,0.0
4086,-2.8315640704911527,0.0
4087,1.0014911885642368,0.0
4088,-0.48692397290511696,0.0
4089,0.02458066561198914,0.0
4090,-0.06745783160810936,0.0
4091,-0.03162909067196838,0.0
4092,-0.042979405680166574,0.0
4093,0.032072811042835575,0.0
4094,0.09345584491697592,0.0
4095,0.05305584000509919,0.0
4096,0.08092941648379487,0.0
4097,-0.10815976142198504,0.0
4098,-0.08374160105442087,0.0
4099,-0.022850394540084695,0.0
4100,0.5671810400376304,0.0
4101,5.653906016894981,0.0
4102,3.3206097579713862,0.0
4103,-2.7258787386897763,0.0
4104,1.5602110577190338,0.0
4105,-0.726777809283956,0.0
4106,0.3816087982641722,0.0
4107,-0.18757060229488723,0.0
4108,0.02133036514605797,0.0
4109,-0.004195236837291,0.0
4110,-0.06190244029656429,0.0
4111,0.009444679477255705,0.0
4112,-0.004860904143604609,0.0
4113,0.0004643944405457747,0.0
4114,0.00945783089831436,0.0
4115,-0.04559096014540866,0.0
4116,0.013628552890038233,0.0
4117,1.6796150655508069,0.0
4118,6.938237864211219,0.0
4119,-0.3972764952886776,0.0
4120,-0.8005988185940391,0.0
4121,0.7165186710512885,0.0
4122,-0.4120821829440422,0.0
4123,0.1920973213805039,0.0
4124,-0.09031559495467403,0.0
4125,-0.0015824465282453515,0.0
4126,-0.0915349961581132,0.0
4127,-0.06715673967896187,0.0
4128,-0.06932072931055691,0.0
4129,-0.05869754516589088,0.0
4130,-0.10369989016528747,0.0
4131,-0.07225783987426071,0.0
4132,-0.02102182818908975,0.0
4133,0.08111110723507059,0.0
4134,3.5676478662604714,0.0
4135,6.050742140071284,0.0
4136,-2.8529979668546153,0.0
4137,1.0872232914567033,0.0
4138,-0.42141328439491077,0.0
4139,0.10700286920872645,0.0
4140,-0.2069382305792662,0.0
4141,-0.03027140977604332,0.0
4142,-0.06676083973681061,0.0
4143,0.041223278261271645,0.0
4144,0.006286361240896234,0.0
4145,-0.055900054596011856,0.0
4146,0.04212278127323158,0.0
4147,-0.035701917309598485,0.0
4148,0.04307046773331284,0.0
4149,-0.048850156296774506,0.0
4150,0.619575576092936,0.0
4151,5.67007578886116,0.0
4152,3.121422073547653,0.0
4153,-2.6230104679531268,0.0
