timestamp,value-0,is_anomaly
0,0.24457945065726863,0
1,3.439905002907582,0
2,6.904740738751958,0
3,-0.2891428597826705,0
4,-1.9477845474835527,0
5,1.5523911243287083,0
6,-0.7607034023764516,0
7,0.10895898264616158,0
8,0.03248931107270328,0
9,-5.758567117596092e-05,0
10,0.011988359100310646,0
11,0.007056693848144155,0
12,0.007882811503417637,0
13,-0.06867178144261554,0
14,-0.03599396387657044,0
15,-0.04109475308382747,0
16,0.0004298524523159396,0
17,-0.014429541730875186,0
18,0.0031492781186357316,0
19,-0.12947119987655412,0
20,0.3077158295409531,0
21,3.582456019799856,0
22,6.833548155765872,0
23,-0.2295062007404762,0
24,-1.9326389627474536,0
25,1.6622169208513096,0
26,-0.7057358891026383,0
27,0.0462582015138636,0
28,0.08585007716048629,0
29,-0.047111930463434024,0
30,0.04451688013822075,0
31,-0.031866917629595044,0
32,0.007312095705976521,0
33,-0.06651426623156612,0
34,0.04567200932464915,0
35,-0.005885705437064428,0
36,-0.00466915464119123,0
37,0.09823030961172052,0
38,0.05994852590216218,0
39,0.028945802037878814,0
40,0.3180959487841018,0
41,3.413003995625044,0
42,6.860951710657759,0
43,-0.19166014088308364,0
44,-1.9337266368496746,0
45,1.5294135299731926,0
46,-0.8065190537616499,0
47,0.10815443592167631,0
48,-0.004117552436013409,0
49,-0.11629363444639483,0
50,-0.04537712359884655,0
51,-0.13981718350539066,0
52,-0.0881636092524951,0
53,-0.08760568069682817,0
54,-0.02358443412035513,0
55,-0.07663203976211747,0
56,-0.07460866942885819,0
57,0.07012043163543395,0
58,-0.08266453863448381,0
59,-0.05441599991324983,0
60,0.274795186933284,0
61,3.5236517580030826,0
62,6.849458706942088,0
63,-0.28287375898575073,0
64,-2.0559201158688816,0
65,1.5294259184045487,0
66,-0.7267633237523212,0
67,0.04848509466105072,0
68,-0.026876804187673995,0
69,-0.1541393050188013,0
70,0.07490077069024657,0
71,0.023230711808788874,0
72,-0.008696256931155479,0
73,0.022324131100222057,0
74,-0.06501262367268962,0
75,0.038999004712339996,0
76,-0.09393849942057206,0
77,-0.02556624248152535,0
78,-0.058734881841673275,0
79,0.06020603094452287,0
80,0.18350114431066109,0
81,3.5242906905952798,0
82,6.894666400165347,0
83,-0.2615271818343221,0
84,-2.002507268188311,0
85,1.488584205585457,0
86,-0.7316823377093097,0
87,0.20011925707335962,0
88,0.05554707449615801,0
89,-0.0655505738466466,0
90,-0.1108064711171933,0
91,-0.058710948007271335,0
92,0.13458338885667756,0
93,-0.04199834579806141,0
94,0.001941409651729987,0
95,0.06975387497129178,0
96,-0.07443159685271111,0
97,-0.0910901107292858,0
98,0.010733179453129117,0
99,0.04604331660138307,0
100,0.23281833040942493,0
101,3.5531112706001458,0
102,6.86931037389606,0
103,-0.3296931826453899,0
104,-1.929603533342375,0
105,1.5132639863353585,0
106,-0.6758734490337166,0
107,0.0315252212256687,0
108,0.06410003727124552,0
109,-0.17600098107727163,0
110,0.09332293303866109,0
111,0.06030702012979534,0
112,-0.027045884609805275,0
113,-0.01682573997043485,0
114,-0.00603443595311455,0
115,0.06893136840512797,0
116,-0.0075508548925897045,0
117,-0.05901390105089277,0
118,-0.08498894579166275,0
119,0.05139099028579963,0
120,0.25287813675240994,0
121,3.4193491981122817,0
122,6.847891172015857,0
123,-0.29374641179879263,0
124,-1.9117632092602546,0
125,1.4728005769513028,0
126,-0.7788228657929445,0
127,0.07490208995720547,0
128,0.0017523786025533516,0
129,0.006797591963305025,0
130,-0.05771561953299581,0
131,0.05052654460902319,0
132,-0.08371762987899115,0
133,-0.035571552908954925,0
134,-0.018020332508658043,0
135,0.036252019271144506,0
136,-0.026589768850050412,0
137,0.020850427874284476,0
138,0.04159808897350754,0
139,0.026570691953626983,0
140,0.35313517301509745,0
141,3.5157144988967697,0
142,6.8936090805929195,0
143,-0.3442967855561162,0
144,-1.888718635858818,0
145,1.54140033769922,0
146,-0.5630739719127233,0
147,0.13766170081477602,0
148,0.031400236277742744,0
149,-0.022090812393073637,0
150,0.04894196558791114,0
151,0.029468939040907707,0
152,-0.025742989143279806,0
153,-0.059395720680730645,0
154,-0.0412417669966221,0
155,-0.0511837929760486,0
156,0.004532737960910744,0
157,-0.12047966534851838,0
158,0.032097397023001385,0
159,-0.012697274415473133,0
160,0.2159250382503778,0
161,3.5406454113948085,0
162,6.8813820736682905,0
163,-0.31876395088147413,0
164,-1.8950985274857255,0
165,1.5386758771681779,0
166,-0.6767336622910854,0
167,0.05564645693808425,0
168,0.11638477057291507,0
169,-0.13582682081331626,0
170,0.006261795659041829,0
171,-0.04214646651780389,0
172,-0.07661252397196201,0
173,0.022943633637459104,0
174,0.024698455239714093,0
175,0.03566140039212727,0
176,0.10648571217958502,0
177,0.044367612274178646,0
178,0.08376275961081867,0
179,0.07836145002695824,0
180,0.2891850899660857,0
181,3.5432965267785703,0
182,6.854428751738893,0
183,-0.2783949750033096,0
184,-1.9953786280718084,0
185,1.5233978977896094,0
186,-0.7695037100383345,0
187,0.1299077024202136,0
188,0.11340445996230965,0
189,-0.07908596100526262,0
190,0.018422347364794124,0
191,0.06120553769476901,0
192,-0.04820103420853139,0
193,-0.003890830293417808,0
194,0.024700431171733216,0
195,0.019522238733158233,0
196,0.0002488317538221572,0
197,0.10133527077574332,0
198,-0.03407882259020495,0
199,-0.017555557304867755,0
200,0.26934856660365325,0
201,3.533199616316974,0
202,6.922093927037837,0
203,-0.28742891913497665,0
204,-1.8086993770708957,0
205,1.5647102832133108,0
206,-0.6694438059472702,0
207,0.08778616182930626,0
208,0.045081371046791066,0
209,0.0037656065522996343,0
210,-0.0036117654566017524,0
211,0.001854827440967836,0
212,0.022420733963853478,0
213,-0.04167204188542529,0
214,-0.032042438586513664,0
215,-0.07230437535002868,0
216,-0.04066241908747999,0
217,0.03785179416964468,0
218,0.050073621306337135,0
219,-0.056707488792922915,0
220,0.24138333439637805,0
221,3.5759091867708053,0
222,6.846391611034111,0
223,-0.38699999277864644,0
224,-1.8098056040279202,0
225,1.5679745778100616,0
226,-0.5781849527894289,0
227,0.2579747490261082,0
228,0.08628290015121831,0
229,-0.06681615721059844,0
230,-0.004570083706738649,0
231,0.055795242011125346,0
232,0.042220757019934274,0
233,0.06640107675614884,0
234,0.06057069499945021,0
235,0.035617020325170966,0
236,0.03786211281940248,0
237,0.010596162053353658,0
238,-0.03021270315175227,0
239,-0.040039650576622884,0
240,0.2891776257912399,0
241,3.4689564444833176,0
242,6.900998031171099,0
243,-0.2939290148912396,0
244,-1.9067149503975114,0
245,1.6237880499925739,0
246,-0.6547784798365115,0
247,0.11437407822753183,0
248,0.05375027324619283,0
249,-0.040224991589017996,0
250,0.03964163407757948,0
251,0.008753029509129352,0
252,0.1015895716434069,0
253,0.0988847617150409,0
254,0.07643429195745596,0
255,0.12842293671552457,0
256,0.14997373191165064,0
257,0.025112612414045013,0
258,0.03765768111184876,0
259,0.09608708519270945,0
260,0.27870837764846107,0
261,3.6928338628684796,0
262,7.042945105173268,0
263,-0.2639568290079451,0
264,-1.7427440892779704,0
265,1.678373187801493,0
266,-0.6944565072534591,0
267,0.2255957636512739,0
268,0.1365633809393408,0
269,-0.13741156918911163,0
270,-0.00026646497421393966,0
271,0.06556790834544274,0
272,0.017472232178656462,0
273,0.06432761497593399,0
274,0.09155305187710316,0
275,0.04849879686527024,0
276,-0.019658505752055647,0
277,-0.020959618181205814,0
278,0.07049751757940197,0
279,0.08121524019263235,0
280,0.30711712967169236,0
281,3.6214409679481117,0
282,6.912519048767002,0
283,-0.30039478567399786,0
284,-1.8768506960390996,0
285,1.5432159188412324,0
286,-0.6658928690227879,0
287,0.2140876356597745,0
288,0.07100855089592065,0
289,0.08496864041053825,0
290,0.08068265595165056,0
291,0.09457728927784076,0
292,0.07128337029492007,0
293,0.012623526431240407,0
294,0.10001815559149983,0
295,0.04406076187604003,0
296,0.07090242779716247,0
297,0.02797867101001745,0
298,0.10311374142799395,0
299,0.08935274587097292,0
300,0.44446773933111444,0
301,3.625467939052656,0
302,7.065547696785085,0
303,-0.24992973965073256,0
304,-1.7714582576281732,0
305,1.5611958999477338,0
306,-0.670470815463638,0
307,0.18444560645749167,0
308,0.1257364216391354,0
309,0.01983419974620655,0
310,0.13267268657261994,0
311,0.11631095659139788,0
312,0.07223658521879966,0
313,0.15740526051144743,0
314,0.054287112126883655,0
315,0.06965431680484088,0
316,0.09967939799521096,0
317,-0.0007356157527443064,0
318,0.101055033152567,0
319,0.16073474280725453,0
320,0.36239132145761455,0
321,3.584554301097231,0
322,6.927192040014483,0
323,-0.26756308041833776,0
324,-1.8762606453088024,0
325,1.5741920888722571,0
326,-0.677676669537076,0
327,0.09541566952194094,0
328,0.0704177738522231,0
329,-0.0718186015053875,0
330,0.12114615986799568,0
331,-0.017260829358620264,0
332,0.11623969792819616,0
333,0.05911441333793382,0
334,0.11045171935741067,0
335,0.06567521690425013,0
336,0.0761319843086729,0
337,0.04085788451213497,0
338,0.0021928966703764624,0
339,0.1434555768569279,0
340,0.42199110871085516,0
341,3.7354386455258553,0
342,7.027763443726108,0
343,-0.16159371536930833,0
344,-1.7893333396817612,0
345,1.599008945583651,0
346,-0.5903091073261515,0
347,0.20360745637751254,0
348,0.12349605278470016,0
349,0.016937173937618073,0
350,0.12916308797571285,0
351,0.12405331156819416,0
352,0.05444981717284721,0
353,0.1836031263821427,0
354,0.0464269635557831,0
355,0.06709780820328051,0
356,0.10627752816117017,0
357,0.14010773051835157,0
358,0.153104625862062,0
359,0.09207327130521459,0
360,0.43234754864145003,0
361,3.5434415746965335,0
362,7.000273437973015,0
363,-0.28532782136116774,0
364,-1.8228723679968726,0
365,1.593404861179196,0
366,-0.609509349307013,0
367,0.17147819668470551,0
368,0.05696388049729324,0
369,-0.023900158293367807,0
370,0.0866013239806031,0
371,0.010928391450067597,0
372,-0.015530618817412141,0
373,-0.009328842227646468,0
374,-0.015421366718226241,0
375,-0.05287605048815789,0
376,-0.019190739439168946,0
377,-0.01972742777078909,0
378,-0.058665068143772606,0
379,-0.045464448265436525,0
380,0.24694660914445557,0
381,3.525102855786742,0
382,6.7917094852611,0
383,-0.4086648422197542,0
384,-1.7629330976906614,0
385,1.5188136584666554,0
386,-0.7209762652699117,0
387,0.18286851732653508,0
388,0.08402408680059861,0
389,0.09365261878346431,0
390,0.15572502247102493,0
391,0.11120598963204849,0
392,0.06794141264884859,0
393,0.052489688443015464,0
394,0.10054489777674158,0
395,0.062308048245532904,0
396,0.08320513039469585,0
397,0.05888059833761746,0
398,-0.0037851626692728263,0
399,0.05005015890309863,0
400,0.36065381800872903,0
401,3.5853942336205553,0
402,6.9232503485512895,0
403,-0.37132434821515237,0
404,-1.8591163746657249,0
405,1.6556058967873049,0
406,-0.62527936902155,0
407,0.16740607421496667,0
408,0.05259033227049205,0
409,0.057614702100869775,0
410,0.11755510839600442,0
411,0.10025485516979078,0
412,0.07546949426344352,0
413,0.08783290206651344,0
414,0.0859879670980904,0
415,0.022547348018838793,0
416,0.01758697169588877,0
417,0.09707818611651992,0
418,0.1073990893172756,0
419,0.09326282744416037,0
420,0.3375309014167453,0
421,3.5735790516042636,0
422,6.9899636597972945,0
423,-0.30498233162907856,0
424,-1.8279762262060983,0
425,1.4680410716625143,0
426,-0.6644430883843608,0
427,0.06293007339140455,0
428,0.09106993813430389,0
429,-0.10830154909116252,0
430,0.0877326346101345,0
431,-0.03132917373035865,0
432,0.02599002043707558,0
433,-0.09810533169679668,0
434,0.04394915093007326,0
435,0.042211872070121705,0
436,0.08157672029243941,0
437,0.07459273096307494,0
438,0.03437912793075693,0
439,0.06477716097595733,0
440,0.29672901023775683,0
441,3.7001400444567354,0
442,6.863601009727656,0
443,-0.32424341570261894,0
444,-1.9046894665520775,0
445,1.5383894360934753,0
446,-0.6886040018865822,0
447,0.21891168988699683,0
448,0.0450397536081326,0
449,0.015915833312292193,0
450,0.07258993209109917,0
451,0.03961155863472553,0
452,0.052909939621426504,0
453,-0.03045982362331761,0
454,0.032844777914221135,0
455,0.05119571017198257,0
456,-0.028752986071478182,0
457,0.04067245265004433,0
458,-0.10744080311731753,0
459,0.04238186514271484,0
460,0.2859002039736009,0
461,3.515909315130149,0
462,6.781762644839518,0
463,-0.3772508238782127,0
464,-1.9501534547142556,0
465,1.5330965548493523,0
466,-0.7138719483802052,0
467,0.18630157757615465,0
468,0.09004374111455096,0
469,-0.04185488887685197,0
470,0.05276562611113811,0
471,-0.048351064353482125,0
472,-0.04353019413909473,0
473,0.04021318601617403,0
474,-0.004653115592366934,0
475,0.01946139815484799,0
476,-0.006381800501399129,0
477,-0.035633080148350996,0
478,-0.018726927949367374,0
479,-0.018516894244157422,0
480,0.2807415905811668,0
481,3.621139056288783,0
482,6.818489606508783,0
483,-0.2831100500779935,0
484,-1.8947541366005238,0
485,1.5435810485139683,0
486,-0.5665284692255002,0
487,0.1388231513189439,0
488,0.06304941867685691,0
489,0.015401542146148705,0
490,0.04279954648091047,0
491,0.11529565573089609,0
492,0.01983068344861503,0
493,-0.0002831935484441106,0
494,0.07055864669855806,0
495,-0.01584321458857904,0
496,0.1028538830192368,0
497,0.054517917759821226,0
498,0.08062148780328392,0
499,0.19017601004618184,0
500,0.3915958103765695,0
501,3.70342655296012,0
502,7.012951821338847,0
503,-0.33576808149285325,0
504,-1.8402328985798213,0
505,1.5349307081876664,0
506,-0.6972622829163535,0
507,0.1892051895301836,0
508,0.06146313874262395,0
509,-0.06698128084827112,0
510,0.03957074253526022,0
511,0.02372097163586029,0
512,0.0295229819893525,0
513,-0.05376654056979739,0
514,0.07686730857295383,0
515,-0.061541034629342,0
516,0.06706153384005907,0
517,-0.09900420913602298,0
518,0.13618087704882845,0
519,0.06822421067011755,0
520,0.41228376500136144,0
521,3.6930790157707634,0
522,6.847292031984843,0
523,-0.34431741117681036,0
524,-1.826702646772997,0
525,1.661839086214672,0
526,-0.6896355543060917,0
527,0.23592908803744703,0
528,0.0896283405056977,0
529,-0.0019549769201262814,0
530,0.13764521031481863,0
531,0.03199958231514108,0
532,0.03243096166883399,0
533,0.0687524195075163,0
534,0.03533965294121281,0
535,0.08250433923236027,0
536,0.035804987301600935,0
537,0.08649287804888635,0
538,-0.013576280449664233,0
539,0.016272455817686625,0
540,0.326927288236167,0
541,3.6432107848078545,0
542,6.866967249202599,0
543,-0.3328399681192916,0
544,-1.8464685555946578,0
545,1.5665888272995356,0
546,-0.6750952384100132,0
547,0.12796571404461707,0
548,0.02805822087749041,0
549,-0.04455652885282803,0
550,0.028453293856667478,0
551,-0.028838270502548786,0
552,0.019831422097937222,0
553,0.04122162324117569,0
554,-0.10703178959562776,0
555,0.024429592363179712,0
556,0.07048060363404818,0
557,0.07830820464460629,0
558,0.07951211909650237,0
559,0.06177040885234865,0
560,0.34895303887766244,0
561,3.6894576778472716,0
562,6.951297661488714,0
563,-0.311044560486247,0
564,-1.7409902170573992,0
565,1.6079777980880907,0
566,-0.5739436131443797,0
567,0.1967123694781559,0
568,0.06882727296210062,0
569,0.07887619901377757,0
570,0.12804759051170791,0
571,0.093886897725175,0
572,0.018609331488143657,0
573,0.02669205538756647,0
574,0.1279041204283315,0
575,0.06733188434156796,0
576,0.12305853171607889,0
577,0.028271064988332706,0
578,0.1091997463789859,0
579,0.04518912996716204,0
580,0.41778242848257835,0
581,3.6478595150859223,0
582,6.902447931466991,0
583,-0.3409930346127364,0
584,-1.7392623650873091,0
585,1.657950835972571,0
586,-0.6253181735306645,0
587,0.24591505541355155,0
588,0.11469834156395582,0
589,0.06699054038717589,0
590,0.13597466026102373,0
591,0.055657191807280015,0
592,0.1482357910164223,0
593,0.12261963250122587,0
594,0.023469782407116183,0
595,0.08980388676829129,0
596,0.04371027746337852,0
597,0.08677385319284749,0
598,0.08533619862648484,0
599,0.11242701907067137,0
600,0.4348609351320052,0
601,3.791628076350936,0
602,6.9309146334465845,0
603,-0.32412498037586013,0
604,-1.7895519989877164,0
605,1.6822796526170412,0
606,-0.5974828646272486,0
607,0.1567186971100647,0
608,0.055805868973628305,0
609,0.04082120716082066,0
610,0.10518047860841645,0
611,0.004708601236095185,0
612,0.0974919240027388,0
613,-0.012078886790594968,0
614,0.024212176370627288,0
615,0.014234147184154802,0
616,0.016655306910214086,0
617,0.0705686478762205,0
618,0.00996849648851457,0
619,0.12461571675465054,0
620,0.2826991245688266,0
621,3.6233120448654117,0
622,6.808699283539374,0
623,-0.4297425123171067,0
624,-1.8702744679242698,0
625,1.6767592031337273,0
626,-0.6587558105459257,0
627,0.23771900418559433,0
628,0.12570895922643915,0
629,0.10231986519719836,0
630,0.1628445968295565,0
631,0.02999618252950005,0
632,0.15109958614489422,0
633,0.1315896444095565,0
634,0.14165379823931237,0
635,0.1026898314093026,0
636,0.09883480086280966,0
637,0.03834926990256059,0
638,0.023826174948903142,0
639,0.07291451642172204,0
640,0.28779134456487915,0
641,3.682160595094794,0
642,6.811813683345377,0
643,-0.28817028557040364,0
644,-1.8946625568473503,0
645,1.578706736398442,0
646,-0.7487628816879122,0
647,0.1507848189449599,0
648,-0.05211849260916686,0
649,-0.024801663534952736,0
650,-0.0012281838147472218,0
651,-0.01046304524573373,0
652,0.01898682234816493,0
653,-0.029290316947048495,0
654,0.1012845866212736,0
655,0.023585677401125136,0
656,0.017163044542080518,0
657,-0.008914388902987208,0
658,0.1002198653684834,0
659,-0.04969625576617433,0
660,0.29077303159730344,0
661,3.7179783946752765,0
662,6.875130579009613,0
663,-0.4317472658895678,0
664,-1.867776824279448,0
665,1.6213428250007624,0
666,-0.7318080674267127,0
667,0.18281192653040543,0
668,0.05320347069051369,0
669,0.0037558964214909254,0
670,-0.02285025392659864,0
671,-0.013464147419552236,0
672,-0.02891598710663621,0
673,0.002220902774073899,0
674,-0.0143876713975221,0
675,0.036307991746204964,0
676,-0.014329569660299139,0
677,0.05044302580422073,0
678,0.058106563556325,0
679,0.05155419193788752,0
680,0.346946232264061,0
681,3.7081609322840494,0
682,6.929158061783044,0
683,-0.42251147184858145,0
684,-1.8662183407672106,0
685,1.4501624128564026,0
686,-0.7168507497409208,0
687,0.15080940830808082,0
688,0.05334042985081192,0
689,-0.06668526695869023,0
690,0.05373585485951216,0
691,0.024246471322335705,0
692,0.017919886558826797,0
693,0.05153149215227335,0
694,0.04723084899414423,0
695,0.05883382725112119,0
696,-0.037513554085722406,0
697,0.0017118058171389332,0
698,0.043152533694672195,0
699,0.029089276997306058,0
700,0.2921701005904081,0
701,3.6090918896655078,0
702,6.896692408994654,0
703,-0.45187367628967007,0
704,-1.8655512992750143,0
705,1.5556016228094303,0
706,-0.8202348008439438,0
707,0.15573529235796008,0
708,-0.027064382921989417,0
709,-0.12252486866163487,0
710,0.021074411603388757,0
711,0.0009618214861346515,0
712,-0.09343749869571809,0
713,-0.07271498070059271,0
714,-0.06632431962068189,0
715,0.026862227665998266,0
716,-0.04432777302293804,0
717,0.051961117262666605,0
718,-0.004559343380369028,0
719,-0.023353668376539863,0
720,0.21427945568289725,0
721,3.6045733896135674,0
722,6.76729708915799,0
723,-0.43489051795886313,0
724,-1.847108093320156,0
725,1.5782076501141444,0
726,-0.8131742075071449,0
727,0.018825557687526112,0
728,0.06504481953803748,0
729,-0.05977333524442918,0
730,-0.04161749525533172,0
731,-0.0013231227367426698,0
732,-0.05139401727047718,0
733,-0.05823111301317778,0
734,-0.026380640665156073,0
735,0.03153333300947353,0
736,-0.05622904655279119,0
737,-0.006604962689486522,0
738,0.048967385992779285,0
739,-0.020175364490330527,0
740,0.26487680881306663,0
741,3.6256298806737424,0
742,6.8131306150856155,0
743,-0.4597134874757239,0
744,-1.799749672500113,0
745,1.5016991271691384,0
746,-0.6732803232054554,0
747,0.15231248844335382,0
748,-0.07549135453125821,0
749,-0.14725457743943748,0
750,0.017056358484676255,0
751,0.000953093673940651,0
752,-0.033142817480821096,0
753,-0.013261660007233441,0
754,0.08189938592029103,0
755,0.06627635285102784,0
756,0.04570989876846087,0
757,0.020627525767302514,0
758,-0.04810194734321849,0
759,-0.04928172455539321,0
760,0.21671747022583152,0
761,3.552983363161829,0
762,6.730451361406538,0
763,-0.49213223199788886,0
764,-1.7298834432387684,0
765,1.5110876812268552,0
766,-0.7671753552707303,0
767,0.08666910225602598,0
768,0.05438313548658076,0
769,-0.07698551198590756,0
770,0.055526784304295,0
771,-0.09702965382659967,0
772,0.0026554070747387623,0
773,0.031863542619574005,0
774,0.02703345249931058,0
775,-0.03970650817677468,0
776,-0.013190915298792058,0
777,-0.11568716415305932,0
778,0.005556517052109786,0
779,-0.13443160327863415,0
780,0.17149477620567966,0
781,3.564685269870793,0
782,6.799589558830329,0
783,-0.5000369707735233,0
784,-1.9085364100685007,0
785,1.4202983767515978,0
786,-0.7457935033610136,0
787,0.07578584336372579,0
788,0.023238239655067928,0
789,-0.16472770871671355,0
790,0.020686635144636152,0
791,-0.06838608877935481,0
792,0.00550353915493669,0
793,-0.02475553483422538,0
794,-0.09331672303634736,0
795,-0.11341957860041915,0
796,-0.10573635708609672,0
797,-0.00011761450008424684,0
798,-0.2082143085899608,0
799,-0.019909392066294107,0
800,0.23139763076567393,0
801,3.6040194924879145,0
802,6.789594982051452,0
803,-0.5472075080045962,0
804,-1.9481591787637524,0
805,1.5322730244034182,0
806,-0.7132586737592433,0
807,0.10660700494901003,0
808,-0.08381470765948083,0
809,-0.03287523582688924,0
810,0.003710549042150988,0
811,-0.05251905800737661,0
812,0.019408673002598624,0
813,-0.03772474633079897,0
814,0.01023068736198714,0
815,-0.015268558712155376,0
816,0.05396077559173786,0
817,-0.021766548112489077,0
818,-0.020185900869879793,0
819,0.023566529004431305,0
820,0.2245174683162549,0
821,3.618826667099484,0
822,6.806442033456009,0
823,-0.4192171113625237,0
824,-1.8598389243335294,0
825,1.56530398172975,0
826,-0.7849893915897959,0
827,0.13616546091813014,0
828,0.0102967592580623,0
829,-0.03017947917957487,0
830,0.0008365272777556068,0
831,-0.042339864726031774,0
832,-0.08661762846707319,0
833,-0.06778179476872095,0
834,0.0027593158412789684,0
835,0.09484824483583607,0
836,-0.06477856317054438,0
837,0.005387904914340609,0
838,-0.08705446283115671,0
839,0.012232340218322257,0
840,0.28670190024260434,0
841,3.6979531083310775,0
842,6.862268905457607,0
843,-0.5014622497687246,0
844,-1.8152551716043683,0
845,1.5066823403202212,0
846,-0.7479389103733864,0
847,0.18529592177975412,0
848,0.07739916642808702,0
849,-0.1446836407936859,0
850,-0.01751913292302627,0
851,-0.025155243266873184,0
852,-0.024405937451423183,0
853,-0.0465003311692802,0
854,-0.02174795732278314,0
855,-0.10506749683572444,0
856,0.03902236018230743,0
857,-0.04403499868504237,0
858,-0.03551034879115932,0
859,-0.06601794252089845,0
860,0.28157157235626173,0
861,3.65828661440958,0
862,6.751082014853782,0
863,-0.583662089204136,0
864,-1.8209932221271201,0
865,1.4661980184876493,0
866,-0.7311109269422698,0
867,0.18913538032981947,0
868,-0.019529681352056478,0
869,-0.08346497012866708,0
870,-0.12689764628903805,0
871,-0.03592118709509454,0
872,-0.017193690400080452,0
873,-0.006304573037839312,0
874,-0.02105017419450677,0
875,-0.057316168231305864,0
876,-0.10971129726937892,0
877,0.05243471383920538,0
878,-0.007967676545741893,0
879,-0.13129883541365553,0
880,0.25363220664493746,0
881,3.608212426363058,0
882,6.833817333950623,0
883,-0.5153594337212337,0
884,-1.7962207018741732,0
885,1.6033762054259917,0
886,-0.8474405693685274,0
887,0.19514291476351636,0
888,0.04752738005909385,0
889,-0.08782632125323456,0
890,-0.044008314131327775,0
891,0.019860405226394793,0
892,-0.03687592064444033,0
893,-0.04466528003714976,0
894,-0.1551856078138632,0
895,-0.007153275440297915,0
896,0.013867361158326272,0
897,-0.01133838105865118,0
898,-0.02331215935878834,0
899,0.033561965382027756,0
900,0.38331857593702257,0
901,3.646887600044142,0
902,6.77318252911109,0
903,-0.48258660304153,0
904,-1.764989247277773,0
905,1.5375409031085223,0
906,-0.7194540825634241,0
907,0.1667346154199459,0
908,0.013546019703359323,0
909,-0.08315335526093687,0
910,-0.019637230807965155,0
911,-0.07294113485643454,0
912,0.06994338404750461,0
913,-0.12775306579998758,0
914,0.038607667832692344,0
915,-0.06544830481606,0
916,0.005620178358642248,0
917,-0.13697449961962516,0
918,-0.012543880410440703,0
919,-0.03316102497760034,0
920,0.283798604756085,0
921,3.649854452233764,0
922,6.851866307931358,0
923,-0.5320073325723144,0
924,-1.8143660971302495,0
925,1.4806965462598194,0
926,-0.6922375312430336,0
927,0.04102653019466923,0
928,-0.07097573652590121,0
929,-0.2205898741286344,0
930,-0.012059723242935833,0
931,-0.10912335002835702,0
932,-0.08246054899252796,0
933,-0.12857413928288997,0
934,-0.16032489993420823,0
935,-0.1121890396800979,0
936,-0.08387921491469204,0
937,-0.016700046119904194,0
938,-0.07993339160945638,0
939,-0.039869154505688065,0
940,0.2467339532793837,0
941,3.682897372107857,0
942,6.788617596731517,0
943,-0.4347624224341439,0
944,-1.8605190798887647,0
945,1.3962653900420026,0
946,-0.8035444696651501,0
947,0.09749113997564934,0
948,0.032831799786396235,0
949,-0.10837135909325898,0
950,-0.06879866286381857,0
951,-0.00848619997372179,0
952,-0.004343705471395124,0
953,0.07336928686841414,0
954,0.050779607665018156,0
955,-0.0637810868972076,0
956,-0.059788447732529795,0
957,-0.07474141404069432,0
958,-0.024144224036978027,0
959,0.03746368905892267,0
960,0.25696800501692074,0
961,3.6693743274110457,0
962,6.652838364304121,0
963,-0.518379731217301,0
964,-1.9273191709158812,0
965,1.5279892934823438,0
966,-0.7327638329144034,0
967,0.09476477315374979,0
968,-0.10093245183870604,0
969,-0.1442817321163434,0
970,-0.16720686022863956,0
971,-0.03028845412332898,0
972,-0.09402784390032136,0
973,-0.05643920793521543,0
974,-0.09556348355615567,0
975,0.027178211203351232,0
976,0.022806361038240505,0
977,-0.09161137693403107,0
978,-0.008321302335202868,0
979,0.004742294614554471,0
980,0.2314267128954847,0
981,3.578671828039004,0
982,6.745254682064265,0
983,-0.5341362664482208,0
984,-1.9055511965276335,0
985,1.421730227189543,0
986,-0.8254347775797004,0
987,0.13397299429478937,0
988,-0.08524568094170382,0
989,-0.12497832500889888,0
990,-0.011030273935783173,0
991,-0.09351768124883436,0
992,-0.14201627255193353,0
993,-0.025621521468804906,0
994,-0.020833535580101807,0
995,-0.11097820748284942,0
996,-0.1306649465270496,0
997,-0.07741488193812764,0
998,0.02981932678430499,0
999,-0.10115358129548084,0
1000,0.2616474637203948,0
1001,3.5679483201927167,0
1002,6.687097269720859,0
1003,-0.5845049584833409,0
1004,-1.7656352534241133,0
1005,1.4207408493392286,0
1006,-0.8639465283706382,0
1007,0.08505147749974871,0
1008,-0.15077091020188807,0
1009,-0.1808897106561262,0
1010,-0.07090088944842049,0
1011,-0.1192498983167655,0
1012,-0.02565191101323791,0
1013,-0.1320886193870194,0
1014,-0.18977684301986358,0
1015,-0.19721418916583267,0
1016,-0.14542809875469215,0
1017,-0.028995872059965195,0
1018,0.06439506723934203,0
1019,0.017866572457179285,0
1020,0.30977540081712185,0
1021,3.657074468341736,0
1022,6.740381373514353,0
1023,-0.504580873613209,0
1024,-1.7880660645078095,0
1025,1.4492212249467475,0
1026,-0.7248030762823655,0
1027,0.08725168432335484,0
1028,-0.020875165158931553,0
1029,-0.16382283436224293,0
1030,-0.0582952072268694,0
1031,-0.12508355689206524,0
1032,-0.05917316573809734,0
1033,-0.12318390740644011,0
1034,-0.08296857740542846,0
1035,-0.005475421720323698,0
1036,0.02019289908393948,0
1037,-0.05005953414198269,0
1038,-0.17075981864251738,0
1039,-0.030126550826851017,0
1040,0.23702966035372344,0
1041,3.6142788215303283,0
1042,6.71473917414963,0
1043,-0.5858974281177018,0
1044,-1.793222306645282,0
1045,1.5681900301253033,0
1046,-0.8448925084243829,0
1047,0.10660558528262885,0
1048,0.0597756984900297,0
1049,-0.036347637199874654,0
1050,-0.053326280152276785,0
1051,0.043100861944512306,0
1052,-0.03908824161266311,0
1053,-0.06704481387403752,0
1054,0.004232820319607394,0
1055,-0.09974476799852308,0
1056,0.0020309667582771654,0
1057,-0.10434536662259244,0
1058,-0.09589844175849759,0
1059,-0.050719442796930476,0
1060,0.19186072284649355,0
1061,3.560073029936701,0
1062,6.817053033052382,0
1063,-0.5510621967225167,0
1064,-1.926805829236195,0
1065,1.501441603644248,0
1066,-0.7601585348448748,0
1067,0.09490689972181757,0
1068,-0.016515681190932646,0
1069,0.00882633391614978,0
1070,0.05439175286272853,0
1071,-0.00031412928277707065,0
1072,-0.08464117145564715,0
1073,-0.03307163034564517,0
1074,0.009546070235885787,0
1075,-0.007781807088565955,0
1076,0.0871412160560348,0
1077,-0.12235837032970258,0
1078,0.023895379966615334,0
1079,-0.03833837872127481,0
1080,0.3115711223730751,0
1081,3.6870232727115604,0
1082,6.788953394765532,0
1083,-0.5854362404186124,0
1084,-1.9254981535169842,0
1085,1.4885287145097574,0
1086,-0.8545320826567946,0
1087,0.1288610301845867,0
1088,0.011603421923903023,0
1089,-0.06243747857182478,0
1090,-0.038975687242738914,0
1091,0.029238826887548516,0
1092,-0.03290958452522451,0
1093,0.04343100164517197,0
1094,-0.0727766920045849,0
1095,0.0477974451850255,0
1096,-0.003118825392349516,0
1097,0.00620077238581623,0
1098,-0.009695686322041146,0
1099,-0.03009469618644765,0
1100,0.20251584170594816,0
1101,3.698313706285713,0
1102,6.80309182236536,0
1103,-0.534836234882887,0
1104,-1.7509681088339821,0
1105,1.4881432020085488,0
1106,-0.7369948595775824,0
1107,0.14832969267715018,0
1108,0.05484417942792354,0
1109,-0.09101137060598517,0
1110,-0.05156682851340069,0
1111,-0.008122767300167682,0
1112,-0.018422249935911253,0
1113,0.025179060363409826,0
1114,-0.019481474779520915,0
1115,-0.010943363697317812,0
1116,0.011859786131792107,0
1117,0.03153377232112021,0
1118,-0.04316073614553158,0
1119,0.05209037374931546,0
1120,0.37860514814046775,0
1121,3.6779061535811057,0
1122,6.864865318968723,0
1123,-0.5203353760435139,0
1124,-1.7597474221177545,0
1125,1.591365891307155,0
1126,-0.6937298555120596,0
1127,0.1183950771938766,0
1128,0.05917374392352104,0
1129,0.0977056955317295,0
1130,0.009265689025432212,0
1131,0.022970894314661858,0
1132,0.09604778915695142,0
1133,0.06226963740958284,0
1134,-0.004615774112153373,0
1135,0.05553194827836107,0
1136,0.13297002905691235,0
1137,0.032703626825632846,0
1138,0.13478621034209876,0
1139,-0.011695158137389541,0
1140,0.34048888238872277,0
1141,3.7383826479584843,0
1142,6.768007830460985,0
1143,-0.6023390388374887,0
1144,-1.7453061038967246,0
1145,1.5324693518296966,0
1146,-0.6758459485274024,0
1147,0.2162846172353164,0
1148,0.040388824644610785,0
1149,0.032132426606270734,0
1150,0.03728548157946884,0
1151,0.09446621540972214,0
1152,-0.040282433507697425,0
1153,0.02200327022330583,0
1154,0.044921238235032135,0
1155,-0.012652173001739188,0
1156,0.053823646334403216,0
1157,0.11088077493415091,0
1158,0.06815881097833516,0
1159,0.056670557839886206,0
1160,0.4036881663681158,0
1161,3.7831661363662503,0
1162,6.883403884532467,0
1163,-0.5398540669217229,0
1164,-1.7174121635711097,0
1165,1.6243646690332088,0
1166,-0.689345908574675,0
1167,0.14320611109774847,0
1168,0.05547223081654569,0
1169,0.08233009820763187,0
1170,0.09318235049480297,0
1171,0.08449296883662089,0
1172,-0.005778543587750602,0
1173,0.030236835470744797,0
1174,0.039191933012921044,0
1175,0.08912161702518384,0
1176,0.02654147596996553,0
1177,0.05203238040380751,0
1178,0.0720469964712261,0
1179,0.06963906360846346,0
1180,0.3446740824139331,0
1181,3.7483235626261564,0
1182,6.928814232561258,0
1183,-0.5430619054867565,0
1184,-1.7224743049216567,0
1185,1.6793187438151669,0
1186,-0.6187149705022623,0
1187,0.30171854558311056,0
1188,0.02257183012061313,0
1189,0.026944326684269475,0
1190,0.17759102366484697,0
1191,0.054217957796602954,0
1192,0.021852873375953513,0
1193,0.1324526150331271,0
1194,0.06037784923726539,0
1195,0.0942871189509859,0
1196,0.10452869848671043,0
1197,-0.061117742070611686,0
1198,0.04266223467253745,0
1199,0.15401415195576224,0
1200,0.3605150072372873,0
1201,3.749819443018476,0
1202,6.861187604573714,0
1203,-0.5404017192439061,0
1204,-1.7991702282071775,0
1205,1.5221318781800786,0
1206,-0.6475517400098882,0
1207,0.1671566644578735,0
1208,0.031174031925335684,0
1209,-0.0319550175150656,0
1210,0.07202989255309208,0
1211,0.004935982984822007,0
1212,0.013811933625268155,0
1213,0.003826775195126954,0
1214,0.11602982176977691,0
1215,0.09144613152468178,0
1216,0.06097926505309005,0
1217,0.12869783595505763,0
1218,0.09609365423949952,0
1219,0.08921195956648907,0
1220,0.36404466081244874,0
1221,3.780598072466093,0
1222,6.9028920587025855,0
1223,-0.48951392849236364,0
1224,-1.7143038131740687,0
1225,1.63263362892895,0
1226,-0.5632930702222533,0
1227,0.2744138822012091,0
1228,0.0697958373660582,0
1229,0.004904611945030463,0
1230,-0.06255673736892359,0
1231,-0.004239050102376095,0
1232,0.011166668625745502,0
1233,-0.009432496034601813,0
1234,0.040721276035567654,0
1235,0.08106126238595715,0
1236,0.03739231341526654,0
1237,0.10100154827821009,0
1238,-0.08139877400059331,0
1239,0.08865002572599681,0
1240,0.36114331278476847,0
1241,3.7339592397478842,0
1242,6.834466464432182,0
1243,-0.4309345250202406,0
1244,-1.6866324284900904,0
1245,1.5907544905469329,0
1246,-0.7578894674275709,0
1247,0.30035709319646037,0
1248,0.08640626197078871,0
1249,-0.11493017361274671,0
1250,0.11293125874217486,0
1251,0.04224677075261989,0
1252,0.05488790346741852,0
1253,0.11266314667055896,0
1254,0.07116352965484266,0
1255,-0.043376138010774626,0
1256,0.11578005038992478,0
1257,0.045020788672600065,0
1258,0.03832542261270641,0
1259,0.07131459254626352,0
1260,0.40712614747083886,0
1261,3.789278664954086,0
1262,6.7972839494084205,0
1263,-0.4809807459340227,0
1264,-1.7471342073869323,0
1265,1.529491454658153,0
1266,-0.635505455319445,0
1267,0.31003251896754946,0
1268,0.04927009969187407,0
1269,0.08848843024684427,0
1270,0.019025731605992177,0
1271,0.11063351530659774,0
1272,0.08687561982011126,0
1273,0.10908433932921066,0
1274,0.12323794177689401,0
1275,0.096073291709827,0
1276,0.04047283843483306,0
1277,0.056956031846089994,0
1278,0.0641942309540467,0
1279,0.041629128486964095,0
1280,0.42756586063885815,0
1281,3.7612802727042864,0
1282,6.784637377093484,0
1283,-0.6105215940149625,0
1284,-1.73773719530542,0
1285,1.5275706131780882,0
1286,-0.8185886854755396,0
1287,0.13258340999348572,0
1288,0.04893683969001407,0
1289,-0.08553620414265309,0
1290,0.03919777035494146,0
1291,-0.06958318293630107,0
1292,-0.02350637927429872,0
1293,-0.04192905325403598,0
1294,-0.10367188410202204,0
1295,-0.04254161252888456,0
1296,0.005628985959526949,0
1297,-0.03834106017960868,0
1298,-0.021669585293973694,0
1299,0.03714929658432548,0
1300,0.3310931431804778,0
1301,3.840240928742545,0
1302,6.788585254457668,0
1303,-0.661294734656635,0
1304,-1.7578041570893963,0
1305,1.541170412837277,0
1306,-0.7893637607777109,0
1307,0.18388609112628101,0
1308,0.018916770448179483,0
1309,-0.03504905780087256,0
1310,0.050168291561590445,0
1311,-0.10226781251353245,0
1312,-0.0171441253867039,0
1313,0.057434047060952856,0
1314,-0.023555376245981655,0
1315,-0.03545545164188213,0
1316,-0.04825483424936851,0
1317,-0.050502380608536034,0
1318,0.07202284487356572,0
1319,0.04937991853124801,0
1320,0.2579742874581273,0
1321,3.6760535435585995,0
1322,6.733473349106315,0
1323,-0.5990546028446602,0
1324,-1.7692116730780263,0
1325,1.4686957773251186,0
1326,-0.723808574332514,0
1327,0.16931192547606433,0
1328,0.0642798297242931,0
1329,-0.006355415025934473,0
1330,-0.03347367706716685,0
1331,-0.09563567279469228,0
1332,0.07685229101250653,0
1333,0.014061440988209897,0
1334,0.03892553243448065,0
1335,0.07125603956423304,0
1336,0.016066996834605825,0
1337,0.04004024604884854,0
1338,0.051907374766974115,0
1339,-0.08296384451379069,0
1340,0.2851679904498543,0
1341,3.6337249368164137,0
1342,6.83432909700297,0
1343,-0.6025027024685707,0
1344,-1.8008676109540744,0
1345,1.5119367954930387,0
1346,-0.746785563975805,0
1347,0.18951732932672308,0
1348,0.03734114749326586,0
1349,0.02508509840246541,0
1350,-0.023574604289571716,0
1351,-0.06651981448496151,0
1352,0.014514942747020462,0
1353,-0.04294663679334504,0
1354,-0.056823053565694004,0
1355,-0.02123003410530204,0
1356,-0.07345503824791963,0
1357,0.1159714670995297,0
1358,-0.04021907879306964,0
1359,0.05398647959186382,0
1360,0.3789443940161301,0
1361,3.7438981835051917,0
1362,6.852411378914305,0
1363,-0.6193265196199724,0
1364,-1.744983824788577,0
1365,1.5382353509351228,0
1366,-0.7282933279585447,0
1367,0.2083971452669951,0
1368,-0.026174141972516315,0
1369,-0.05012322779926198,0
1370,-0.017918920743830558,0
1371,-0.046925345971057755,0
1372,0.04495997180493345,0
1373,-0.0750601594283859,0
1374,-0.04524321630983371,0
1375,-0.10536992429894519,0
1376,-0.000883115426876753,0
1377,0.07044656036064124,0
1378,0.022785252934501482,0
1379,0.06282124014753164,0
1380,0.2819092367162695,0
1381,3.6950301991368266,0
1382,6.848666553232207,0
1383,-0.6409574521704212,0
1384,-1.73707144468148,0
1385,1.414010683225503,0
1386,-0.7226915733876264,0
1387,0.25431217244481824,0
1388,-0.03756580262208989,0
1389,-0.12722724097304552,0
1390,0.04929479154027033,0
1391,-0.013331901669588702,0
1392,0.0564225194451767,0
1393,-0.005751846119200059,0
1394,0.06394123192280435,0
1395,0.0036763641943481466,0
1396,-0.07134364553938913,0
1397,0.025253921742148938,0
1398,0.017499480901917344,0
1399,-0.013339642473575782,0
1400,0.2988155903076164,0
1401,3.825476855330497,0
1402,6.870475618382578,0
1403,-0.5985067164651944,0
1404,-1.6841774781486352,0
1405,1.4898837701923946,0
1406,-0.7551563986611847,0
1407,0.12131661551608036,0
1408,-0.02328298675316738,0
1409,-0.05827958346322962,0
1410,0.015121937779037488,0
1411,-0.010277530010562697,0
1412,0.027961792981783744,0
1413,0.04944836456297724,0
1414,-0.026615633455703423,0
1415,0.10492971556342051,0
1416,0.07561480286062874,0
1417,0.08123099942713302,0
1418,0.1565597988942368,0
1419,-0.02953285514194444,0
1420,0.4093516860581283,0
1421,3.817347937644099,0
1422,6.781499289117288,0
1423,-0.5853179320615227,0
1424,-1.7509453087645306,0
1425,1.5484844600083585,0
1426,-0.6929067840453229,0
1427,0.1889772056668823,0
1428,0.0023683162628658667,0
1429,-0.059637684939321325,0
1430,-0.04343684254059656,0
1431,0.08040148712945365,0
1432,0.04412075125687937,0
1433,0.06333089748427131,0
1434,-0.007823221264787288,0
1435,0.01230934049848358,0
1436,0.07672751904261169,0
1437,0.02432298324510663,0
1438,0.13293580477722539,0
1439,0.11438609846997691,0
1440,0.4067312614304562,0
1441,3.889367012316151,0
1442,6.811505781756457,0
1443,-0.643115176120812,0
1444,-1.7370776720300367,0
1445,1.5587290044094053,0
1446,-0.6518240452761758,0
1447,0.26861709316964827,0
1448,0.06664065684383895,0
1449,-0.1181191681668681,0
1450,0.08668496634906707,0
1451,0.021187829952109844,0
1452,-0.03189860443962724,0
1453,-0.10886584530086396,0
1454,-0.023640289256507564,0
1455,-0.10427406108239087,0
1456,-0.06737415085582815,0
1457,0.034643728250414424,0
1458,-0.014171375922096791,0
1459,-0.09227168409002694,0
1460,0.27428476766329213,0
1461,3.7106365649113413,0
1462,6.7469220369741425,0
1463,-0.7243323399581054,0
1464,-1.764482297001901,0
1465,1.4316541670273661,0
1466,-0.7993548615871262,0
1467,0.17222097431705063,0
1468,-0.0904459217996863,0
1469,-0.019824772261684276,0
1470,-0.03954137280589426,0
1471,-0.10630991698181695,0
1472,-0.08914000979078998,0
1473,0.06550503484369587,0
1474,0.013136218432588264,0
1475,-0.025331057056382455,0
1476,0.04561841742832259,0
1477,-0.03504690845944418,0
1478,-0.012468645104280316,0
1479,0.023996750304524986,0
1480,0.34977743804903916,0
1481,3.806290131138443,0
1482,6.880624557304266,0
1483,-0.6084567128858701,0
1484,-1.749575007504767,0
1485,1.5719320406875807,0
1486,-0.7775984639328403,0
1487,0.20665420647112487,0
1488,0.08509044106361999,0
1489,-0.09307334321734646,0
1490,0.02962862789064121,0
1491,-0.03631200685298484,0
1492,0.04229297831826191,0
1493,-0.06265434991066907,0
1494,0.054254016820579495,0
1495,0.02791353167463709,0
1496,-0.005890594043733852,0
1497,-0.028260421429866477,0
1498,0.06949918710197758,0
1499,0.014399649862652256,0
1500,0.24945405361297207,0
1501,3.82045965666113,0
1502,6.777533486925742,0
1503,-0.6758111813889333,0
1504,-1.7937325013463288,0
1505,1.5115771891145109,0
1506,-0.7819969489619929,0
1507,0.17588411952242863,0
1508,0.1369990082456709,0
1509,-0.032954258402709,0
1510,-0.0508792019342172,0
1511,0.016126390844105984,0
1512,-0.020717688883669837,0
1513,-0.03133813732324785,0
1514,0.11481246304691421,0
1515,-0.023212364564249015,0
1516,0.0674588023269882,0
1517,0.017840387065803345,0
1518,0.00419888641714442,0
1519,-0.020226947959708926,0
1520,0.375119988748664,0
1521,3.8004156226326145,0
1522,6.798210918114491,0
1523,-0.5868369411711936,0
1524,-1.6437981454120345,0
1525,1.5906810593345648,0
1526,-0.7989625632374943,0
1527,0.14659958467877432,0
1528,0.04872678617845634,0
1529,0.0013905529098824122,0
1530,-0.004605071076444395,0
1531,0.024670405956954092,0
1532,0.03283386558059598,0
1533,0.05645803933739163,0
1534,-0.021343907031881673,0
1535,0.024171073425133527,0
1536,0.06648859513051592,0
1537,-0.022357794749906068,0
1538,0.0788063955810021,0
1539,-0.04170769408923167,0
1540,0.40940232747842614,0
1541,3.8249180721354756,0
1542,6.819888058546871,0
1543,-0.5897917315915432,0
1544,-1.6804846875533,0
1545,1.486743813186681,0
1546,-0.6954531376638524,0
1547,0.32642855435494444,0
1548,-0.0343212473760548,0
1549,0.024685154512966836,0
1550,0.1173851758683901,0
1551,0.12330872455317902,0
1552,0.06618604717963977,0
1553,0.09990172982147535,0
1554,0.051946906169581634,0
1555,0.09601995171035954,0
1556,-0.039763559815811964,0
1557,0.05170080657914226,0
1558,0.04999118517140743,0
1559,-0.033664085399878196,0
1560,0.29377203939129926,0
1561,3.7700642007580263,0
1562,6.697577229334387,0
1563,-0.6826362607181141,0
1564,-1.6452036416022566,0
1565,1.548541457718213,0
1566,-0.7572151970500511,0
1567,0.1732650475820976,0
1568,0.012818555602686039,0
1569,-0.036310939671867264,0
1570,0.08232140996081481,0
1571,-0.09050147792099661,0
1572,0.052968895752703055,0
1573,0.12293400481474959,0
1574,0.08190232998668273,0
1575,0.07267682458308132,0
1576,0.08048921753035022,0
1577,0.09764362325382897,0
1578,0.05308184864160713,0
1579,0.02166787787781394,0
1580,0.4327171643795886,0
1581,3.766157481609636,0
1582,6.821568458606185,0
1583,-0.5453726513037033,0
1584,-1.512964097719605,0
1585,1.5929663274420398,0
1586,-0.6315806732031034,0
1587,0.22367363660607711,0
1588,0.04467841462090058,0
1589,0.07638688922045173,0
1590,0.08978616839154455,0
1591,0.000727612359049723,0
1592,0.08837031313731965,0
1593,0.06839588171675559,0
1594,0.04548254174280804,0
1595,0.09706187408470844,0
1596,0.10036339755947843,0
1597,0.05087262185655308,0
1598,0.0191640844208385,0
1599,0.04944475162211865,0
1600,0.4092044018415095,0
1601,3.8330104869812405,0
1602,6.830414062779022,0
1603,-0.5786156425082877,0
1604,-1.6122456366791982,0
1605,1.5239516715911645,0
1606,-0.714261619366009,0
1607,0.22136495580351773,0
1608,0.10529097602983421,0
1609,0.028764827585069604,0
1610,0.09690007001136423,0
1611,0.10495527676290659,0
1612,0.18673410517532094,0
1613,0.04680731000463258,0
1614,0.08807588038386846,0
1615,0.17145196972229804,0
1616,0.05763353471333095,0
1617,0.05196015437427744,0
1618,-0.05679813116323382,0
1619,0.07249435498310955,0
1620,0.2772098468437878,0
1621,3.893875928348554,0
1622,6.807139495451416,0
1623,-0.6374436680963358,0
1624,-1.714324222433169,0
1625,1.5336090431079499,0
1626,-0.732308290206613,0
1627,0.3111598538130986,0
1628,0.0728488813533869,0
1629,0.02973786793842608,0
1630,0.08513582258746033,0
1631,0.04048901479453777,0
1632,0.08950183144077191,0
1633,0.12649829095787923,0
1634,0.0578878318636055,0
1635,0.03592825664173932,0
1636,0.1372990243465371,0
1637,0.12468627017084374,0
1638,0.15327220697357144,0
1639,0.020426086126774948,0
1640,0.41527183816414887,0
1641,3.9037781556920206,0
1642,6.865244704441334,0
1643,-0.6846529993738506,0
1644,-1.5409433737641083,0
1645,1.605400528744569,0
1646,-0.7492629019435297,0
1647,0.23044628214837387,0
1648,0.14607592412675524,0
1649,0.026266022831823194,0
1650,0.12396470565557832,0
1651,0.07255749363292499,0
1652,0.15915152239207409,0
1653,0.02338614398164618,0
1654,0.06257444244387729,0
1655,0.09487614522723867,0
1656,0.10316252871926682,0
1657,0.11517695114785284,0
1658,0.028339834283211063,0
1659,0.08126593985240646,0
1660,0.3655000126052026,0
1661,3.7745886495033236,0
1662,6.759990217216416,0
1663,-0.6343403282499607,0
1664,-1.6491924799358393,0
1665,1.5094110888373422,0
1666,-0.7479195945111304,0
1667,0.24498001003674558,0
1668,0.11939819734571117,0
1669,-0.010300553199624914,0
1670,0.06499083080664125,0
1671,-0.09894965526727499,0
1672,0.02309630999731402,0
1673,0.009086666512346683,0
1674,0.023396445305492116,0
1675,0.00976449139126536,0
1676,0.021651541529947513,0
1677,-0.003205450023651475,0
1678,0.12838491178446215,0
1679,0.022383465423108505,0
1680,0.282408822872548,0
1681,3.8632434251309786,0
1682,6.77686219073811,0
1683,-0.7228167738432563,0
1684,-1.64323261666937,0
1685,1.5120945474813405,0
1686,-0.6520976953807646,0
1687,0.24846629738456516,0
1688,0.20083370563617453,0
1689,0.0019342315708762159,0
1690,0.0456740558403521,0
1691,0.07323613365860127,0
1692,0.02656070804215211,0
1693,-0.053994649709171505,0
1694,0.055336082331509946,0
1695,0.08260161681738862,0
1696,-0.0897956112010741,0
1697,0.06965373812520861,0
1698,0.04491066280343853,0
1699,0.006173605427822877,0
1700,0.3854044903190096,0
1701,3.8200410577998665,0
1702,6.761892913512192,0
1703,-0.6006887310651161,0
1704,-1.7193766279003913,0
1705,1.4627643804719948,0
1706,-0.7853373820332353,0
1707,0.17019384696376588,0
1708,-0.03927472558619048,0
1709,0.04800316835102697,0
1710,-0.020673602825889162,0
1711,0.10759994497905152,0
1712,0.0762715989748081,0
1713,0.1595555432745636,0
1714,0.02992327196223349,0
1715,0.11878522750496523,0
1716,0.038734465057011336,0
1717,0.03529388079996201,0
1718,0.01666777022801198,0
1719,0.03233967388423392,0
1720,0.43600564441209316,0
1721,3.83495438930117,0
1722,6.657268100616628,0
1723,-0.6493960394526244,0
1724,-1.6039596373679608,0
1725,1.4904747230856827,0
1726,-0.7359537332188266,0
1727,0.14958614517955793,0
1728,0.12657709666339267,0
1729,-0.014643723721942267,0
1730,0.08630641378984102,0
1731,0.11717513869776697,0
1732,-0.0015015485069602985,0
1733,0.06880773817027605,0
1734,-0.03336909735729433,0
1735,0.03028901953136577,0
1736,0.008850908543818474,0
1737,0.06472547792165521,0
1738,0.01336682048027588,0
1739,0.07433048000804296,0
1740,0.31765543330655344,0
1741,3.804761886387636,0
1742,6.7932351432220015,0
1743,-0.6021743569951692,0
1744,-1.664382373516969,0
1745,1.5730075384682982,0
1746,-0.640097171873639,0
1747,0.24564122504229846,0
1748,-0.007094528586668279,0
1749,-0.04639948053543635,0
1750,0.02522058167400191,0
1751,-0.04753297593441386,0
1752,0.12624366421822053,0
1753,0.007400369555286619,0
1754,0.025036602655008653,0
1755,0.11333130016435589,0
1756,0.12248294345151714,0
1757,-0.027374521511143897,0
1758,0.03870205714261794,0
1759,0.032099881486082955,0
1760,0.41551112903641935,0
1761,3.8545798321294513,0
1762,6.766833161362029,0
1763,-0.6844012515413311,0
1764,-1.6961279288240072,0
1765,1.5534430480638128,0
1766,-0.7380920153602532,0
1767,0.22388282200397833,0
1768,-0.0019650739851744606,0
1769,-0.08011398287485293,0
1770,0.08077980743345903,0
1771,0.005309150996652098,0
1772,-0.015587608966507668,0
1773,0.0030425466380183085,0
1774,0.06898874675940558,0
1775,0.01793285625029707,0
1776,0.01487354788584363,0
1777,0.044273129095006455,0
1778,0.005459696888202005,0
1779,0.07095880484613018,0
1780,0.2722794383667068,0
1781,3.8490838849604385,0
1782,6.769734337991754,0
1783,-0.7016746125407127,0
1784,-1.591866563801275,0
1785,1.468509846867788,0
1786,-0.8050058046668997,0
1787,0.216559026802213,0
1788,-0.013638647429755749,0
1789,0.0607141809217266,0
1790,0.14827112398850031,0
1791,0.025538393983508816,0
1792,0.09342017379960693,0
1793,0.025305614101616164,0
1794,0.07097607532955935,0
1795,-0.03462054762487193,0
1796,0.008763190915691638,0
1797,0.10960379313956348,0
1798,0.016468921775645972,0
1799,-0.06775587974300698,0
1800,0.4387350256820488,0
1801,3.85638545069888,0
1802,6.6670490039864685,0
1803,-0.6388355962908354,0
1804,-1.6738798280729892,0
1805,1.46343172713542,0
1806,-0.6833684371028824,0
1807,0.11975346178745537,0
1808,0.015624314603555534,0
1809,-0.02537659415625876,0
1810,0.04568962729497085,0
1811,-0.09169612013490906,0
1812,0.04585770119126817,0
1813,0.003662549867903448,0
1814,0.031146054648434906,0
1815,0.05382684637748545,0
1816,0.006017491096529,0
1817,0.11471980797514442,0
1818,-0.04668493689595571,0
1819,0.02139248724412368,0
1820,0.41246844315027165,0
1821,3.9014653197545246,0
1822,6.837791921732152,0
1823,-0.6945649292752623,0
1824,-1.7043712316659205,0
1825,1.4973161432545112,0
1826,-0.7574683878021834,0
1827,0.15343535561269392,0
1828,-0.0726768693762588,0
1829,-0.014219831477339184,0
1830,-0.12625102483695283,0
1831,-0.12689083655576855,0
1832,-0.2006841739864053,0
1833,-0.20532234517610154,0
1834,-0.026093090580213127,0
1835,-0.10170629763102909,0
1836,-0.10131155028775028,0
1837,-0.0102952741610529,0
1838,0.010378287365089441,0
1839,0.047360349823532114,0
1840,0.30756135780593985,0
1841,3.912589875241145,0
1842,6.876807736754452,0
1843,-0.7022115315168529,0
1844,-1.7366819903403552,0
1845,1.5185838077745428,0
1846,-0.7069680707733704,0
1847,0.22788984107455368,0
1848,0.028322050505976283,0
1849,-0.012651865074616742,0
1850,0.06680249522881788,0
1851,-0.0101006689671268,0
1852,-0.06528831058860139,0
1853,-0.036750047673974356,0
1854,-0.09685133398878132,0
1855,-0.12348927103034611,0
1856,-0.032763700924245735,0
1857,-0.025882267782176872,0
1858,-0.01073074130562408,0
1859,0.02265749951687887,0
1860,0.32380295223158195,0
1861,3.849694724486915,0
1862,6.735072011129737,0
1863,-0.7605013359847259,0
1864,-1.5418222111797963,0
1865,1.5801924382359283,0
1866,-0.8074293021252151,0
1867,0.2250112411986078,0
1868,0.0035157222606170477,0
1869,-0.03610988935546694,0
1870,-0.060851650662223145,0
1871,-0.1078737104688183,0
1872,0.003821482232373153,0
1873,0.07797715243079427,0
1874,0.01397095039018364,0
1875,0.013861239655044141,0
1876,-0.0430924349822506,0
1877,0.029193771150679695,0
1878,-0.184148105304754,0
1879,0.019900405730049506,0
1880,0.4018308250167948,0
1881,3.795295657934226,0
1882,6.7771108854970885,0
1883,-0.7639904045951271,0
1884,-1.7369126058035622,0
1885,1.4052657982213357,0
1886,-0.8154168749964317,0
1887,0.16590534834642212,0
1888,-0.016430621611382645,0
1889,-0.016120744692039154,0
1890,-0.04675111430978534,0
1891,0.0246354142895947,0
1892,-0.06482671489550877,0
1893,0.024645547092522146,0
1894,-0.021256585333260115,0
1895,-0.04884359716854036,0
1896,0.07348004479415071,0
1897,-0.004182081450765877,0
1898,0.060760880342724005,0
1899,-0.0438561004335407,0
1900,0.3258342909388945,0
1901,3.7723316262806295,0
1902,6.687128666641557,0
1903,-0.809227195253083,0
1904,-1.6835675236897192,0
1905,1.4203211015903294,0
1906,-0.822674105639781,0
1907,0.17312386340758404,0
1908,-0.03780574084237406,0
1909,-0.12530423998846393,0
1910,-0.10272871751509868,0
1911,-0.06413552833870426,0
1912,-0.07734708489856931,0
1913,-0.06039740113569263,0
1914,-0.0521879028317343,0
1915,-0.08945671064506815,0
1916,-0.040370211801753805,0
1917,-0.004918798783159281,0
1918,0.08351454499802338,0
1919,0.01547500571974445,0
1920,0.2809468686011056,0
1921,3.828934130058862,0
1922,6.791388456594115,0
1923,-0.824688523322487,0
1924,-1.6897345330687852,0
1925,1.5117083522230041,0
1926,-0.7964588236187395,0
1927,0.158643779717444,0
1928,0.019273305060180754,0
1929,-0.025334949166928356,0
1930,-0.009293604722745461,0
1931,-0.03727605957344454,0
1932,-0.004626314698153619,0
1933,-0.02746166717652552,0
1934,0.032877179130521,0
1935,-0.10761451776706904,0
1936,-0.09458033739804386,0
1937,0.055666865292956426,0
1938,-0.047511494637376986,0
1939,-0.0493837076373699,0
1940,0.3565043010172748,0
1941,3.829637882908914,0
1942,6.687038563967158,0
1943,-0.7970443915017216,0
1944,-1.7190602666142183,0
1945,1.4394547951545258,0
1946,-0.6852125621731612,0
1947,0.21428441856093963,0
1948,0.06196892028634892,0
1949,-0.04798810646113272,0
1950,0.05956777631860925,0
1951,0.01435335583091875,0
1952,0.04899821017520115,0
1953,0.03159314072483075,0
1954,0.025637200147851293,0
1955,-0.03328986106675971,0
1956,0.026053564787181217,0
1957,-0.09014540916737653,0
1958,0.007319707179665355,0
1959,-0.061989825181314434,0
1960,0.34249035515076104,0
1961,3.7542325808143184,0
1962,6.771362720678351,0
1963,-0.8551713001526903,0
1964,-1.7007287481938385,0
1965,1.4344254910370833,0
1966,-0.7456736564794011,0
1967,0.17338389552445055,0
1968,-0.024581912472223647,0
1969,-0.17657950856079746,0
1970,0.024373272128238692,0
1971,-0.12569142159377042,0
1972,-0.055085362102557864,0
1973,-0.07421036093715286,0
1974,-0.07208470821042022,0
1975,0.0217199854549815,0
1976,-0.05879279318185936,0
1977,-0.0333097438452491,0
1978,0.021121612483927903,0
1979,-0.0028577236810750084,0
1980,0.2985218528467766,0
1981,3.7683683008445796,0
1982,6.614891776470334,0
1983,-0.8349646183578584,0
1984,-1.6599915440459247,0
1985,1.4452439275750621,0
1986,-0.8185274376259333,0
1987,0.17537075487051781,0
1988,-0.006709280579475098,0
1989,-0.012474095707232069,0
1990,-0.09112413682678583,0
1991,-0.04393204144547024,0
1992,-0.05654095712479823,0
1993,-0.02788146927988927,0
1994,-0.10775352147718403,0
1995,-0.181789071676474,0
1996,0.08698977575552799,0
1997,-0.10336604604941915,0
1998,-0.06424614229765677,0
1999,-0.09445247261014217,0
2000,0.3573857854060198,0
2001,3.864490825060817,0
2002,6.684391850012887,0
2003,-0.8091335267744257,0
2004,-1.6893911292277384,0
2005,1.3952579227215431,0
2006,-0.788243396406743,0
2007,0.13672680395418088,0
2008,-0.09801750101569931,0
2009,-0.14376134202947238,0
2010,-0.058875018797980364,0
2011,0.022535541167724965,0
2012,-0.025770675295564226,0
2013,0.0008355827322456821,0
2014,-0.019404524742723687,0
2015,-0.007327606773977518,0
2016,-0.05294201390489469,0
2017,0.02771347433932455,0
2018,-0.03929700896132313,0
2019,0.039130509329909,0
2020,0.3038224816961116,0
2021,3.804504207087793,0
2022,6.759323987613424,0
2023,-0.7762662848494261,0
2024,-1.6331239444024988,0
2025,1.5086457892454708,0
2026,-0.7249839107297098,0
2027,0.16751023636006554,0
2028,-0.025937710997398084,0
2029,-0.042259998978833604,0
2030,-0.09475145676566835,0
2031,0.04000258969013103,0
2032,0.006159868748908386,0
2033,0.03398307540221513,0
2034,-0.0007939682093011449,0
2035,-0.015620611193025886,0
2036,0.01354519644233071,0
2037,-0.0599400218937519,0
2038,-0.06298379560180484,0
2039,-0.031106533739212763,0
2040,0.3322413233344007,0
2041,3.794165385519739,0
2042,6.687869507477818,0
2043,-0.8509233938946617,0
2044,-1.749219522009843,0
2045,1.4608421915816119,0
2046,-0.8052845128008371,0
2047,0.20857429439718347,0
2048,-0.05662480307861509,0
2049,-0.06378762620750753,0
2050,-0.013647274551007806,0
2051,-0.04413623943526862,0
2052,-0.03408866716477013,0
2053,-0.10103307178070851,0
2054,0.02852846346196722,0
2055,-0.011788885592026368,0
2056,-0.075307688682894,0
2057,-0.09183629673792962,0
2058,-0.043586315074349825,0
2059,-0.12443044999843572,0
2060,0.29110434496429083,0
2061,3.8475978908916444,0
2062,6.639361510609253,0
2063,-0.7996088710264566,0
2064,-1.666405919611366,0
2065,1.4141661963166399,0
2066,-0.7493007231685616,0
2067,0.16014899253139886,0
2068,-0.041851759461988124,0
2069,-0.0357006586258996,0
2070,-0.00919782592846446,0
2071,-0.0008144886973195792,0
2072,0.008158412628085657,0
2073,-0.06143077078810864,0
2074,-0.05866607278676198,0
2075,-0.09014888047824007,0
2076,-0.05111665184517273,0
2077,-0.029988547983291508,0
2078,-0.019596071444915576,0
2079,0.04583849324293371,0
2080,0.2541796915732851,0
2081,3.8440414734939794,0
2082,6.724062446636478,0
2083,-0.88890740376591,0
2084,-1.7347904575343238,0
2085,1.4648242939498315,0
2086,-0.8240131776177955,0
2087,0.06780482320937227,0
2088,-0.11007058919309404,0
2089,-0.16580067999429193,0
2090,-0.07121052100652123,0
2091,-0.09149326192407953,0
2092,-0.056706838773524226,0
2093,-0.051299809072922094,0
2094,-0.0776897050411211,0
2095,0.014468107242491132,0
2096,-0.07747060123308702,0
2097,-0.0844763737429339,0
2098,-0.044520730266667724,0
2099,-0.03085501516076414,0
2100,0.3290866595485989,0
2101,3.7591735234794434,0
2102,6.687855720119334,0
2103,-0.8245594968079984,0
2104,-1.666726868046402,0
2105,1.3326983167504085,0
2106,-0.7816716809118927,0
2107,0.03134174941228521,0
2108,-0.012879664225754005,0
2109,-0.1011445290692193,0
2110,-0.09056318690615675,0
2111,-0.0809138007163732,0
2112,-0.11189299595178424,0
2113,-0.05278801674973051,0
2114,-0.06670350971667972,0
2115,0.004420456315452695,0
2116,0.03577567795422679,0
2117,-0.06693436512475302,0
2118,-0.05385870000576997,0
2119,-0.1599313109028349,0
2120,0.3016053093028375,0
2121,3.833694794762118,0
2122,6.628586477982282,0
2123,-0.927230169869373,0
2124,-1.6526599160553272,0
2125,1.4319417212177354,0
2126,-0.8880047520256628,0
2127,0.09690119378688532,0
2128,-0.002685186904722789,0
2129,-0.07137603361578651,0
2130,-0.024374691850456348,0
2131,-0.1326824319517373,0
2132,-0.11540176300133845,0
2133,-0.2148785340930367,0
2134,0.0065523759297945044,0
2135,-0.07002332358566676,0
2136,-0.05978286454484235,0
2137,-0.07644332305751315,0
2138,-0.05948617485332004,0
2139,-0.09839859314577469,0
2140,0.26726939334952005,0
2141,3.749075600714397,0
2142,6.667365645446621,0
2143,-0.8948127097333365,0
2144,-1.6964924993587394,0
2145,1.3834768140257416,0
2146,-0.8022596055373168,0
2147,0.24684732520399172,0
2148,-0.044412188675084896,0
2149,-0.12691914532598142,0
2150,-0.008413394311591202,0
2151,-0.14319383447858916,0
2152,-0.06322794004840361,0
2153,-0.07225089859877261,0
2154,-0.026815542636524872,0
2155,-0.043362837785147795,0
2156,-0.06327060517095257,0
2157,-0.08139377885683823,0
2158,-0.09211892288413315,0
2159,-0.11085688136811596,0
2160,0.262502611441623,0
2161,3.7643599458491086,0
2162,6.631103103797727,0
2163,-0.858421813826685,0
2164,-1.6551321009482582,0
2165,1.42604199962244,0
2166,-0.9127405579596036,0
2167,0.15334483819084005,0
2168,-0.07650287906929164,0
2169,-0.07305637863260794,0
2170,-0.08116872029129113,0
2171,-0.059456118135087596,0
2172,-0.018776702206405912,0
2173,-0.10813740321446441,0
2174,-0.09165919381813586,0
2175,-0.003344735930361886,0
2176,0.051189072608615285,0
2177,-0.012456748977307888,0
2178,-0.07488749035805045,0
2179,-0.06123950748846027,0
2180,0.3671663441380515,0
2181,3.903684119115358,0
2182,6.7436098820498875,0
2183,-0.8607175979884795,0
2184,-1.7061434148628616,0
2185,1.4199514809094405,0
2186,-0.8306034084143186,0
2187,0.09496991669660992,0
2188,-0.08168802497889938,0
2189,-0.022921416363441055,0
2190,-0.03379033826546114,0
2191,-0.08812066113933925,0
2192,-0.10497751849362204,0
2193,-0.05865131860767999,0
2194,-0.020241858925825515,0
2195,-0.03411565155172486,0
2196,-0.12265444122986308,0
2197,-0.09301884966076944,0
2198,-0.07073788073418674,0
2199,-0.10261818502251277,0
2200,0.238848534410688,0
2201,3.6551131047392964,0
2202,6.678650854120449,0
2203,-0.94003186899299,0
2204,-1.7691250727025805,0
2205,1.3993601947414973,0
2206,-0.8894732994223379,0
2207,0.06981555515532006,0
2208,-0.015595105397383499,0
2209,-0.1311612615868401,0
2210,-0.02609597595415558,0
2211,-0.08948013987474862,0
2212,-0.128524410232362,0
2213,-0.05774462334730664,0
2214,-0.13694028498152222,0
2215,-0.1342117207735914,0
2216,-0.04628215478333671,0
2217,-0.05080587917967344,0
2218,-0.23735370782459753,0
2219,-0.1170815437356041,0
2220,0.20445218324996967,0
2221,3.7501558806173256,0
2222,6.602727797371639,0
2223,-0.9574681759222066,0
2224,-1.791389123462954,0
2225,1.3673728866287602,0
2226,-0.8267153356432958,0
2227,0.13611218570174063,0
2228,-0.1602946435111445,0
2229,-0.14930145060247338,0
2230,-0.03035775740379591,0
2231,-0.13316874680506738,0
2232,-0.07679737380813802,0
2233,-0.012064425588012323,0
2234,0.00973753760857661,0
2235,-0.05496019471346489,0
2236,-0.10974926738482713,0
2237,-0.0879646544305337,0
2238,-0.07869183761850655,0
2239,-0.18139521037701872,0
2240,0.29666877873287717,0
2241,3.8629003775413397,0
2242,6.624399235097836,0
2243,-0.9740866739815831,0
2244,-1.7798603881544854,0
2245,1.4318795262215505,0
2246,-0.9093828887835422,0
2247,0.1090607041533834,0
2248,-0.07925208791895842,0
2249,-0.17888916839942848,0
2250,-0.17781293094236317,0
2251,-0.1507428562096822,0
2252,-0.019252986677259915,0
2253,-0.1291195544526813,0
2254,-0.06416941804455306,0
2255,-0.15074899838022868,0
2256,0.0008759275222351703,0
2257,-0.17966606047247569,0
2258,-0.06973781237264459,0
2259,-0.05816715835389089,0
2260,0.2795825331425982,0
2261,3.7479986880746874,0
2262,6.527809444899596,0
2263,-0.9592822779815274,0
2264,-1.6886373136360397,0
2265,1.3365523243241466,0
2266,-0.8264614429526097,0
2267,0.09794460154993584,0
2268,-0.028254045398576053,0
2269,-0.04411083814694776,0
2270,-0.07419628719085074,0
2271,-0.09319865066442556,0
2272,-0.1365585734371677,0
2273,-0.10098725433500838,0
2274,-0.024289462258163447,0
2275,-0.06849696004092327,0
2276,-0.10562208582516641,0
2277,-0.03765004867002857,0
2278,-0.045279961074938826,0
2279,-0.09557607924022406,0
2280,0.2709764708350276,0
2281,3.8129527916967594,0
2282,6.634311943957563,0
2283,-0.8876720911938677,0
2284,-1.6417634559982885,0
2285,1.4785078332170063,0
2286,-0.8321335346887706,0
2287,0.2060357835939425,0
2288,-0.031851167081946456,0
2289,-0.07270498756547844,0
2290,-0.03421214177336344,0
2291,0.013053054061378827,0
2292,0.06427469094565007,0
2293,0.03964515979651832,0
2294,0.08087357925650737,0
2295,-0.04194138624056062,0
2296,-0.01958302733508469,0
2297,0.039427758073650024,0
2298,-0.06681504267161918,0
2299,-0.09868194891480424,0
2300,0.2636892428979229,0
2301,3.871988503134575,0
2302,6.646614690951493,0
2303,-0.9800266332173148,0
2304,-1.678759927765996,0
2305,1.4452355963144765,0
2306,-0.7847204227780894,0
2307,0.16989522366908597,0
2308,-0.09077089671416033,0
2309,-0.18287831878759184,0
2310,-0.0766295848857253,0
2311,-0.12926491304958637,0
2312,0.033456440393141086,0
2313,-0.03778746904395278,0
2314,-0.024734943822699446,0
2315,-0.1281794003244539,0
2316,-0.07639434992528851,0
2317,-0.00021933296810779795,0
2318,-0.061155892011626536,0
2319,-0.04116958404017101,0
2320,0.3013901633413128,0
2321,3.915179839909121,0
2322,6.750960403489501,0
2323,-0.8587113951623425,0
2324,-1.6400764539057238,0
2325,1.4983858784840116,0
2326,-0.7720591370507954,0
2327,0.24227419272340217,0
2328,-0.03464814380771806,0
2329,0.0009431977775498299,0
2330,0.11046211942608436,0
2331,0.022797527729457,0
2332,0.0785580072238859,0
2333,0.042002159595553035,0
2334,0.07803485029505648,0
2335,-0.07159804132428008,0
2336,-0.014619693748012318,0
2337,-0.0344382714625444,0
2338,-0.07813568770799366,0
2339,0.0013538100556250536,0
2340,0.2599477711588255,0
2341,3.8726561245061366,0
2342,6.661682801270938,0
2343,-0.8852929383108807,0
2344,-1.4271646554795439,0
2345,1.481080300049331,0
2346,-0.8080636498926748,0
2347,0.161188183278538,0
2348,-0.10597750964441614,0
2349,-0.0662306433511918,0
2350,0.010765164074871787,0
2351,0.054475613847603306,0
2352,-0.07019114225769535,0
2353,0.019255506654715236,0
2354,-0.041536045041607364,0
2355,0.16419541329490708,0
2356,0.03253267345085069,0
2357,0.02331231392787793,0
2358,-0.025051407358042947,0
2359,-0.018026728108432484,0
2360,0.3242317924740585,0
2361,3.9473124731004585,0
2362,6.757090444684157,0
2363,-0.8777653161772088,0
2364,-1.581395176855995,0
2365,1.4334789769426939,0
2366,-0.8022669208600164,0
2367,0.24490831652526052,0
2368,-0.0026486733513637825,0
2369,-0.19349151962868594,0
2370,-0.07685753195536574,0
2371,-0.010500981024444467,0
2372,-0.08578694348229039,0
2373,-0.06777287210582315,0
2374,-0.06419572060939548,0
2375,-0.09372181026858607,0
2376,-0.011327462763032717,0
2377,-0.028751980912267768,0
2378,0.03695142485306985,0
2379,-0.08834742943386815,0
2380,0.33304070604764646,0
2381,3.8827483869375463,0
2382,6.709791334231106,0
2383,-0.8967292949743751,0
2384,-1.6130452120228198,0
2385,1.5291918508742972,0
2386,-0.874893347704956,0
2387,0.24859685946143967,0
2388,-0.016736982967730973,0
2389,-0.020756010749506323,0
2390,0.022264821289428166,0
2391,-0.02287118655699904,0
2392,-0.009128879672797354,0
2393,0.0015999076158920338,0
2394,0.03436269576356492,0
2395,-0.025329608672371315,0
2396,-0.007281919588625896,0
2397,0.018235210266988808,0
2398,0.1378177764858725,0
2399,-0.006159417463982117,0
2400,0.5005466748911931,0
2401,4.040988425875907,0
2402,6.677273621373604,0
2403,-0.8875747332710193,0
2404,-1.5909598710867185,0
2405,1.3069427273241068,0
2406,-0.767176339954712,0
2407,0.24150912423827284,0
2408,-0.07831534315892398,0
2409,-0.11513497614145904,0
2410,-0.059638192214094714,0
2411,0.021231321726784838,0
2412,-0.04070718301890737,0
2413,-0.045991141007510686,0
2414,-0.10172799774268296,0
2415,-0.06150505137404949,0
2416,-0.04065456388870676,0
2417,-0.07612411305775817,0
2418,0.06126228540313872,0
2419,-0.04602373238370419,0
2420,0.3714845107864763,0
2421,3.947762391822574,0
2422,6.679405952363403,0
2423,-0.885261096133305,0
2424,-1.4550469471645013,0
2425,1.455133956972416,0
2426,-0.8340206713466101,0
2427,0.19592076993687807,0
2428,-0.011789989305480676,0
2429,-0.1349641178810622,0
2430,0.0549307336628638,0
2431,0.013947671369468777,0
2432,0.044966949292857654,0
2433,0.03970798702400886,0
2434,-0.04233736543205868,0
2435,-0.004098119769040429,0
2436,-0.07057267635263756,0
2437,-0.019469841150868448,0
2438,-0.004796964358932312,0
2439,-0.025517122178231454,0
2440,0.3339510275170481,0
2441,3.9311974649377674,0
2442,6.646755957675987,0
2443,-0.951049993465494,0
2444,-1.4968780548653022,0
2445,1.5108496858586657,0
2446,-0.7713960509637744,0
2447,0.2914335734505153,0
2448,0.056412181153493016,0
2449,-0.016397273433132367,0
2450,0.09944541446263425,0
2451,-0.07335862706348498,0
2452,0.03982335202089834,0
2453,-0.014753326068473606,0
2454,0.0931938310490173,0
2455,0.08217021538435543,0
2456,0.17552200071003254,0
2457,-0.029781098457210147,0
2458,0.1043869531691678,0
2459,0.044673874699249605,0
2460,0.39152110694693665,0
2461,3.942489102825976,0
2462,6.652546827941052,0
2463,-0.9544320201766204,0
2464,-1.6118978024702466,0
2465,1.3292010182042158,0
2466,-0.8143842275888986,0
2467,0.137223236380758,0
2468,0.014010698918736499,0
2469,-0.04493211814498639,0
2470,-0.06358147833356897,0
2471,-0.09319178834491051,0
2472,-0.05129328704490206,0
2473,-0.0537775193338997,0
2474,-0.05191440857734408,0
2475,0.00903412094851333,0
2476,0.01838406589332689,0
2477,-0.019708749151681967,0
2478,-0.09546794302940056,0
2479,0.047867175725790814,0
2480,0.3385306676011516,0
2481,3.969237705568959,0
2482,6.673963497358885,0
2483,-0.87061702715554,0
2484,-1.525892188940316,0
2485,1.423677704456935,0
2486,-0.7300941473252924,0
2487,0.30046090789055696,0
2488,0.014611067160236756,0
2489,-0.04795641532958854,0
2490,-0.11413419199148292,0
2491,0.022169634309879192,0
2492,0.033603924648137544,0
2493,0.08023566912450329,0
2494,0.04921616863139261,0
2495,0.08589221794028376,0
2496,-0.0026447137575990754,0
2497,0.09766702279174684,0
2498,0.02452232017162443,0
2499,-0.039214309922865016,0
2500,0.30085282110720246,0
2501,4.070533814861875,0
2502,6.621196274855561,0
2503,-0.9541396403579637,0
2504,-1.4871424243794789,0
2505,1.5222873491351356,0
2506,-0.8326282890940672,0
2507,0.22395334914053427,0
2508,0.015701597724428737,0
2509,0.039823954524967536,0
2510,-0.0005291249763828831,0
2511,-0.027996538975267646,0
2512,-0.052812221774514986,0
2513,-0.04489037167758579,0
2514,0.015598444037220029,0
2515,0.0031490958846939446,0
2516,0.00575415159071142,0
2517,-0.05012027318981647,0
2518,-0.057473948490484345,0
2519,-0.00042534547543196174,0
2520,0.39130369384623837,0
2521,3.9056147663373197,0
2522,6.660950398895847,0
2523,-0.9541408663369474,0
2524,-1.5196996679158634,0
2525,1.469929324770038,0
2526,-0.7417929172046709,0
2527,0.19626500457472407,0
2528,-0.09026318026615848,0
2529,-0.06624760691164869,0
2530,0.014185736670226143,0
2531,-0.006596342201803766,0
2532,-0.04984646215456935,0
2533,0.054041377808005234,0
2534,0.00031153369748812337,0
2535,-0.007839692747490919,0
2536,0.06178508496758523,0
2537,0.01737682899370529,0
2538,0.03188741336968303,0
2539,0.011762673115258464,0
2540,0.3752937972991487,0
2541,3.9570043257376524,0
2542,6.667161824448441,0
2543,-1.0050218759490055,0
2544,-1.525537035480589,0
2545,1.498797454778669,0
2546,-0.8103584177265198,0
2547,0.15455490259068008,0
2548,-0.03858432764384466,0
2549,0.013325946736913827,0
2550,0.001333061115379649,0
2551,-0.032386735320199825,0
2552,0.03227040442446747,0
2553,-0.04653217741299136,0
2554,-0.021248609034380576,0
2555,-0.011335498886552504,0
2556,0.05634756335415548,0
2557,0.04782084795317543,0
2558,-0.02447007754571422,0
2559,-0.002837935029561591,0
2560,0.3780229598583415,0
2561,4.001231177206666,0
2562,6.697343022041554,0
2563,-1.0330915605360105,0
2564,-1.592322219482992,0
2565,1.473788602169182,0
2566,-0.8131831580747466,0
2567,0.20126648988007162,0
2568,-0.0009049669748856966,0
2569,-0.00818269231044552,0
2570,0.08721598186450494,0
2571,0.02506424388393225,0
2572,0.03606888738421304,0
2573,0.03381353053559516,0
2574,-0.030776469802275226,0
2575,-0.01212965855004766,0
2576,-0.02467600143151144,0
2577,0.07762907493824586,0
2578,0.0008926628621107723,0
2579,-0.03545569249636403,0
2580,0.3181412791154926,0
2581,3.986519307674989,0
2582,6.646867750225064,0
2583,-0.9370807876477362,0
2584,-1.56485587646615,0
2585,1.4748101890092875,0
2586,-0.7152448910717276,0
2587,0.224073357441522,0
2588,-0.03225830693806025,0
2589,-0.08230712045278119,0
2590,0.02246699460452179,0
2591,-0.005742814059853597,0
2592,0.06730819169079301,0
2593,-0.0879555836657654,0
2594,-0.027474716678654032,0
2595,0.059679364887874696,0
2596,0.06947595509527227,0
2597,0.02451423981565635,0
2598,0.0252932744645373,0
2599,-0.04905858205464528,0
2600,0.351623744788342,0
2601,4.030906147188462,0
2602,6.613495608270793,0
2603,-0.9690057068015048,0
2604,-1.5371272010654116,0
2605,1.3953929706885124,0
2606,-0.7838192105213821,0
2607,0.23346448749914062,0
2608,-0.030385531916774136,0
2609,-0.02369899265802248,0
2610,0.05529249217602255,0
2611,0.12407973422472632,0
2612,0.09370628869390707,0
2613,0.04717599224010813,0
2614,0.03888391882170637,0
2615,0.08652134311843454,0
2616,-0.04567427248478312,0
2617,0.07123432233248261,0
2618,0.04684657494867148,0
2619,0.06666080756983968,0
2620,0.48773422365995234,0
2621,4.064280547182876,0
2622,6.7260881808911375,0
2623,-0.8804603902366377,0
2624,-1.4247071937719906,0
2625,1.4638421338367058,0
2626,-0.7138844195197487,0
2627,0.21840914863519684,0
2628,0.0677050119086227,0
2629,-0.0055339503538927234,0
2630,0.054828197013542176,0
2631,-0.07287166688144234,0
2632,0.03181830804963128,0
2633,0.10638065830625945,0
2634,-0.007825879312078855,0
2635,0.10403208539272828,0
2636,-0.16210926665097333,0
2637,-0.08313352430119714,0
2638,-0.0046686908267591296,0
2639,-0.012469425515002323,0
2640,0.3189055525022827,0
2641,3.934906644875,0
2642,6.681907724432004,0
2643,-0.9884017537850243,0
2644,-1.4692328984056748,0
2645,1.4032309689744875,0
2646,-0.8181808890963305,0
2647,0.19946536370334278,0
2648,0.012999878036148233,0
2649,-0.11069578367604699,0
2650,-0.017014729969801513,0
2651,-0.006361607443763825,0
2652,-0.021168155399669916,0
2653,0.06466732493386242,0
2654,0.049713207174343584,0
2655,0.06136737594125631,0
2656,0.05220254991193475,0
2657,0.005973525429384815,0
2658,0.04985241712854821,0
2659,0.022648037913257844,0
2660,0.2817732212830604,0
2661,4.034184442504842,0
2662,6.6312594642721505,0
2663,-0.8894262573879139,0
2664,-1.572333888749195,0
2665,1.4936296781468696,0
2666,-0.8007850411470046,0
2667,0.1100779044772082,0
2668,-0.07440037341321715,0
2669,-0.0651774948881498,0
2670,-0.018628318660471127,0
2671,-0.16276444950858854,0
2672,-0.08949422411652631,0
2673,-0.04281299722000924,0
2674,-0.10233706225491394,0
2675,-0.02390558480720356,0
2676,-0.1547805085679304,0
2677,-0.09887832161425492,0
2678,-0.06916565443071186,0
2679,-0.1126381877846591,0
2680,0.24760906711518588,0
2681,3.952395236956946,0
2682,6.509771233299213,0
2683,-1.0802126178405547,0
2684,-1.5491608969625315,0
2685,1.4834588960596915,0
2686,-0.829029838336439,0
2687,0.19432507190352186,0
2688,-0.0626794792892885,0
2689,-0.05622257045029961,0
2690,-0.02752668982107154,0
2691,-0.06578017764658223,0
2692,-0.06475508560683127,0
2693,-0.026524127772335343,0
2694,-0.014188050941452207,0
2695,-0.0437274658084198,0
2696,-0.00504287068126762,0
2697,-0.05877930615013957,0
2698,-0.011359797146881529,0
2699,0.008297855359828063,0
2700,0.35485750015742745,0
2701,4.058879187676909,0
2702,6.541954255594062,0
2703,-1.0168741945045523,0
2704,-1.5241475107683424,0
2705,1.3813970917510499,0
2706,-0.8780262700516472,0
2707,0.17377608805542624,0
2708,-0.09338078896927526,0
2709,0.002377740737941461,0
2710,0.0012723527673874045,0
2711,0.04643326222205694,0
2712,-0.0421425801102103,0
2713,-0.04029412441305835,0
2714,-0.034961149727737534,0
2715,-0.05268093465929605,0
2716,-0.10076362075269864,0
2717,-0.09107924048331725,0
2718,-0.09458798586905923,0
2719,0.006687535919743456,0
2720,0.2832883506597623,0
2721,3.8200479642537815,0
2722,6.575136800070934,0
2723,-0.949945428969677,0
2724,-1.6259122543560294,0
2725,1.410532044724387,0
2726,-0.8075837946603505,0
2727,0.09470431769752644,0
2728,-0.043544371773771504,0
2729,-0.08955737521132807,0
2730,-0.04720561905121146,0
2731,-0.029396681243402566,0
2732,-0.002313566469824578,0
2733,-0.08093197608944833,0
2734,0.01561074944342166,0
2735,0.008415263623386328,0
2736,-0.03858917907107642,0
2737,-0.08043087504880377,0
2738,-0.038360034745557485,0
2739,-0.06493731241839942,0
2740,0.41301797620208125,0
2741,3.9300138018502357,0
2742,6.726516100252499,0
2743,-1.0228550275921149,0
2744,-1.5689752290337484,0
2745,1.4550479198022084,0
2746,-0.8964575003339592,0
2747,0.1001921924713182,0
2748,0.03898551434978978,0
2749,-0.026497064633731457,0
2750,0.033013787997688254,0
2751,0.04617522201654325,0
2752,-0.0012160546343945701,0
2753,0.025478766626804983,0
2754,-0.0003182484694308277,0
2755,-0.07084632565136206,0
2756,0.09768933220700231,0
2757,-0.036621141425022916,0
2758,-0.00851022235609259,0
2759,-0.07680654200059837,0
2760,0.4108520863723918,0
2761,3.9595791186604514,0
2762,6.658069438241914,0
2763,-1.0186105698849366,0
2764,-1.5305339479049522,0
2765,1.5029046018201768,0
2766,-0.8076954233585623,0
2767,0.1731486158897339,0
2768,-0.016865874441291322,0
2769,-0.08802074655881842,0
2770,-0.09067163240637638,0
2771,0.010989265986377547,0
2772,-0.03437274507458836,0
2773,0.047033647942200024,0
2774,-0.03216259457246275,0
2775,0.03751524922783823,0
2776,0.010900887867412388,0
2777,-0.009524430365325853,0
2778,0.018503105401318963,0
2779,-0.06807990320572967,0
2780,0.3331286295956041,0
2781,4.002774372531463,0
2782,6.716989464545573,0
2783,-0.9729521903405494,0
2784,-1.5105007840328541,0
2785,1.5133454807592281,0
2786,-0.7508625137801371,0
2787,0.19599561537940355,0
2788,0.026145477910480792,0
2789,-0.011881012974209543,0
2790,0.07673541914444029,0
2791,-0.026391931249677352,0
2792,0.022345677850764398,0
2793,-0.010447282070288716,0
2794,-0.06370011723316064,0
2795,0.04095174476049143,0
2796,-0.03943049198733588,0
2797,0.08155434196904465,0
2798,-0.045036944524095956,0
2799,0.06571918182030889,0
2800,0.38768578575686213,0
2801,4.049408618883372,0
2802,6.646991864571557,0
2803,-0.973332436759599,0
2804,-1.4657086255215188,0
2805,1.475687252219725,0
2806,-0.8381516598632658,0
2807,0.25521563251266155,0
2808,-0.09136418943219433,0
2809,-0.02847139989080861,0
2810,-0.026064857983542813,0
2811,-0.049612363042165306,0
2812,-0.06336011931903918,0
2813,-0.03791796944435449,0
2814,-0.03586929685259721,0
2815,-0.1013276151009603,0
2816,0.00900440380351834,0
2817,-0.012556914809700597,0
2818,0.02330279255413875,0
2819,0.013588979981347367,0
2820,0.35249976937811184,0
2821,4.031545421551363,0
2822,6.615470358843351,0
2823,-1.0482183421630822,0
2824,-1.5160878134401532,0
2825,1.4657051046542402,0
2826,-0.7461287210584446,0
2827,0.1513351856328532,0
2828,0.014402820246343376,0
2829,0.12150381392808417,0
2830,-0.03517693410828637,0
2831,-0.010469156242707882,0
2832,0.03802542909552945,0
2833,-0.00363950580609918,0
2834,0.023450150092563148,0
2835,-0.07736838643670092,0
2836,0.04667113476891785,0
2837,0.072223203710824,0
2838,-0.05288119485517631,0
2839,0.08494485141747443,0
2840,0.48249232713203477,0
2841,4.043030393400296,0
2842,6.692804231457434,0
2843,-0.9120772688138088,0
2844,-1.394097118686532,0
2845,1.428429119779926,0
2846,-0.7237729362415309,0
2847,0.25532939907351,0
2848,0.07993406088725803,0
2849,0.13946138192141283,0
2850,0.06037392571605653,0
2851,0.04513663918502912,0
2852,0.11640610280627742,0
2853,0.03820522434189497,0
2854,0.1688850332276695,0
2855,0.1516038042106665,0
2856,0.18592060683791647,0
2857,0.07424680596590061,0
2858,0.06746898884788144,0
2859,0.04955402569627626,0
2860,0.4821542447534625,0
2861,4.135430915845695,0
2862,6.714208439219035,0
2863,-0.992665099871135,0
2864,-1.3360307303717827,0
2865,1.5211907278591643,0
2866,-0.7614759797606706,0
2867,0.2907561645882629,0
2868,0.03990151711436356,0
2869,-0.023145106313372243,0
2870,0.004254176436584135,0
2871,0.047546380713632215,0
2872,-0.009241995067127176,0
2873,0.03611145708905164,0
2874,-0.027020217345640585,0
2875,-0.022137343681876934,0
2876,-0.06114084709606686,0
2877,-0.05205022810341611,0
2878,0.002989186574480669,0
2879,0.061392408603644755,0
2880,0.3898480168245244,0
2881,4.108244487864674,0
2882,6.741204754111097,0
2883,-1.0011997761315774,0
2884,-1.5206327470641683,0
2885,1.5182845396807556,0
2886,-0.7226818873764101,0
2887,0.24833102709273097,0
2888,-0.029156936098933647,0
2889,-0.025962106499269232,0
2890,0.06858167550488793,0
2891,0.01205344225350908,0
2892,0.055302923858978295,0
2893,0.03188944306766372,0
2894,0.04844701290343237,0
2895,0.03420114325251625,0
2896,0.056762037102143156,0
2897,0.06539278071474137,0
2898,0.07798872136717287,0
2899,-0.03602989005060752,0
2900,0.44822089166076656,0
2901,4.058807987700251,0
2902,6.790972754015165,0
2903,-0.9672073033038909,0
2904,-1.3778435111846463,0
2905,1.4428003967044132,0
2906,-0.8180386967358566,0
2907,0.32400794936696325,0
2908,-0.003734230296139243,0
2909,0.07085535514260782,0
2910,0.139251173599373,0
2911,0.11209060923415287,0
2912,0.06775982218729427,0
2913,0.07709752011052204,0
2914,0.057795139787567784,0
2915,0.15052290757022085,0
2916,0.04363972743469564,0
2917,-0.004413696883458482,0
2918,0.03381257965225104,0
2919,0.12581966703404698,0
2920,0.3625918302917412,0
2921,4.0899957284173984,0
2922,6.712124225771883,0
2923,-0.9883309510488439,0
2924,-1.4588060379126557,0
2925,1.5132589726431414,0
2926,-0.7061314337451883,0
2927,0.24752014421394292,0
2928,0.0014224244753385379,0
2929,0.004724106442871304,0
2930,0.05870840813256721,0
2931,0.04757401746466505,0
2932,0.06931992265089204,0
2933,0.13185254897563564,0
2934,0.06431007318383367,0
2935,-0.0008876853328201387,0
2936,0.019159771113564313,0
2937,0.07576265693573117,0
2938,-0.020559004547253904,0
2939,-0.010785160119394191,0
2940,0.3791413861117473,0
2941,4.033626619081967,0
2942,6.677725120044188,0
2943,-1.0288045579283123,0
2944,-1.4484172498902523,0
2945,1.4207188135129738,0
2946,-0.6590032837177712,0
2947,0.21657127269378568,0
2948,-0.08970812405787892,0
2949,-0.05946689216505323,0
2950,-0.012968587104195052,0
2951,0.032941299385938885,0
2952,-0.04632775790691853,0
2953,-0.0014255470174626556,0
2954,-0.09412956288830904,0
2955,-0.06770956451039535,0
2956,0.03630853546032913,0
2957,0.11863205529017297,0
2958,-0.019360097281363804,0
2959,0.06783974006085555,0
2960,0.2806360554999955,0
2961,4.093212204757166,0
2962,6.619556793043908,0
2963,-1.0497179793374596,0
2964,-1.4308929012055547,0
2965,1.4845475572486453,0
2966,-0.8310153488941505,0
2967,0.2393207905580433,0
2968,-0.01677360199812625,0
2969,0.004286176460792448,0
2970,0.029419894043238942,0
2971,-0.014913035195735835,0
2972,0.04428316166072769,0
2973,0.06285296741133413,0
2974,0.09402232869421585,0
2975,0.039636233123998846,0
2976,-0.004955702610371225,0
2977,0.03216291246708169,0
2978,-0.008390258100684923,0
2979,-0.04604063974055958,0
2980,0.2976515895730559,0
2981,4.086611047611699,0
2982,6.6356331067274255,0
2983,-1.1041643668738028,0
2984,-1.4514464723868092,0
2985,1.3222339546749624,0
2986,-0.8192720596953671,0
2987,0.21554271845833253,0
2988,-0.06031297033705956,0
2989,-0.004317885863435435,0
2990,-0.04739286323995951,0
2991,-0.0762745302658748,0
2992,-0.030807132068835046,0
2993,0.0037250503951151296,0
2994,-0.046585866609784816,0
2995,0.04665911074415381,0
2996,-0.04380063861206386,0
2997,0.02917520916999345,0
2998,0.0023931146445069305,0
2999,-0.011387153092793072,0
3000,0.4289959197778637,0
3001,4.012931469054663,0
3002,6.634537578433409,0
3003,-1.0720034708011277,0
3004,-1.4999828349712354,0
3005,1.4669153673704571,0
3006,-0.7051447807070226,0
3007,0.23195085797623968,0
3008,0.026528763553067672,0
3009,0.0275715556822947,0
3010,0.026361842122761922,0
3011,0.029172787218917175,0
3012,0.10008436514620453,0
3013,0.031057589058654543,0
3014,0.08962766050421753,0
3015,0.050228968252674505,0
3016,0.015083654150819891,0
3017,0.030387745040944335,0
3018,0.037295650301576055,0
3019,-0.005316417112450587,0
3020,0.41028063260846953,0
3021,4.1540501198071365,0
3022,6.65094679651234,0
3023,-1.0666061889648741,0
3024,-1.4945128690906082,0
3025,1.4838312150470503,0
3026,-0.7914968235733716,0
3027,0.1674808463998506,0
3028,0.062098986150029165,0
3029,0.04374626307404142,0
3030,0.10644371874910882,0
3031,-0.030485903552931466,0
3032,0.0078066117875042335,0
3033,0.0386505448906426,0
3034,0.03632782313700744,0
3035,0.06633829291940707,0
3036,0.047227148770996236,0
3037,-0.0020885953257612014,0
3038,-0.005862643674999949,0
3039,0.048801368716041627,0
3040,0.39029287550283864,0
3041,4.094715031270176,0
3042,6.691400335307595,0
3043,-1.0337318141875045,0
3044,-1.4793495564321362,0
3045,1.4512771094209218,0
3046,-0.6681619038759242,0
3047,0.2566721868728019,0
3048,-0.013700732623981082,0
3049,0.04540078777183774,0
3050,-0.00783565475098183,0
3051,0.027491093579448338,0
3052,0.04853663321837036,0
3053,0.04946391143706173,0
3054,-0.052011227565393225,0
3055,-0.031068618854054188,0
3056,0.023281629088878923,0
3057,-0.03431122629391568,0
3058,0.06656443613030064,0
3059,-0.02348842796351203,0
3060,0.43353487284033976,0
3061,4.040111973941143,0
3062,6.622201786362311,0
3063,-1.044648716385009,0
3064,-1.50433202397705,0
3065,1.4125741944050925,0
3066,-0.7585164366315392,0
3067,0.16385552040494605,0
3068,-0.06521225806947745,0
3069,0.03979821513670395,0
3070,0.08848889695944838,0
3071,-0.02935310681511747,0
3072,0.04625426770295348,0
3073,0.04096529928742926,0
3074,-0.03595722546344194,0
3075,-0.07618344323244447,0
3076,0.05241261220245716,0
3077,0.022830129602916863,0
3078,-0.057496606715915555,0
3079,0.02746749338053797,0
3080,0.3803462654412344,0
3081,4.0754603133434975,0
3082,6.585308822790349,0
3083,-0.9866262559613198,0
3084,-1.414707450918889,0
3085,1.4015188259511402,0
3086,-0.7848023182975373,0
3087,0.16370676524370595,0
3088,-0.050162801415034604,0
3089,-0.03196030873657478,0
3090,0.03497078522715173,0
3091,0.04355005096827684,0
3092,0.02278929667529122,0
3093,0.07816252413995445,0
3094,-0.03404402002662718,0
3095,0.04217436039378598,0
3096,0.15533006008990602,0
3097,0.026351656016412137,0
3098,0.10587823076292127,0
3099,0.0658901560396791,0
3100,0.36459218881169553,0
3101,4.192127143358414,0
3102,6.771087530168115,0
3103,-1.0262863057084544,0
3104,-1.2536568565189574,0
3105,1.5557298502544281,0
3106,-0.7313792368966128,0
3107,0.2637905836645696,0
3108,0.08313584937816065,0
3109,0.0020877724243531237,0
3110,0.02795759828948117,0
3111,0.045194220122332526,0
3112,-0.005078674281243796,0
3113,-0.002800209160238352,0
3114,0.0620583610477971,0
3115,0.03803930957606944,0
3116,-0.04344890664077798,0
3117,0.028526722015365463,0
3118,-0.05826961674887186,0
3119,-0.09906730704680339,0
3120,0.4230901745629641,0
3121,4.093154858556502,0
3122,6.553559185889933,0
3123,-1.089843873688653,0
3124,-1.426128632023892,0
3125,1.4148807919910351,0
3126,-0.8552758181392626,0
3127,0.2250025791478635,0
3128,-0.015514453380620366,0
3129,0.029948925547829783,0
3130,0.0796581863962618,0
3131,0.05258083711151203,0
3132,-0.04204786787644488,0
3133,-0.034380344126828014,0
3134,-0.022063742784916157,0
3135,0.04340319568978165,0
3136,-0.037603062525445555,0
3137,0.027168599662907668,0
3138,-0.0467612187986717,0
3139,0.014196538225861696,0
3140,0.4295439759852486,0
3141,4.004233386722444,0
3142,6.583427949121439,0
3143,-1.1957156666180466,0
3144,-1.374262931918397,0
3145,1.365279001142509,0
3146,-0.8095554088884311,0
3147,0.2040901267302127,0
3148,-0.017582141838781977,0
3149,-0.025503311919851487,0
3150,-0.016181601484997962,0
3151,0.09138024607813663,0
3152,-0.07096760599104351,0
3153,0.003329071453269563,0
3154,-0.0013160641992981167,0
3155,-0.003022185096282857,0
3156,-0.03495566006823832,0
3157,0.10254765738285249,0
3158,-0.10725240978692688,0
3159,-0.06278878021478712,0
3160,0.3654957696767512,0
3161,4.008327225483801,0
3162,6.49100124515476,0
3163,-1.157222563174944,0
3164,-1.399410809573318,0
3165,1.4583447731606152,0
3166,-0.8306016715734037,0
3167,0.1872958229351816,0
3168,0.02187182461273078,0
3169,-0.043979365483845845,0
3170,0.0323760824820351,0
3171,0.04140400503574333,0
3172,0.00850976190184928,0
3173,-0.017051184154605797,0
3174,0.08262620364484627,0
3175,0.020613871233332293,0
3176,-0.08104458063501882,0
3177,-0.07140369601622364,0
3178,0.023322699161904607,0
3179,0.07216124437177049,0
3180,0.38633440638198496,0
3181,4.0384133411687335,0
3182,6.571773393566259,0
3183,-1.083661689991247,0
3184,-1.389982954626111,0
3185,1.4510713011576466,0
3186,-0.7536024268701409,0
3187,0.1663270143008746,0
3188,0.00504643620448,0
3189,-0.010025720280814273,0
3190,0.06599622249991294,0
3191,0.04847653249523278,0
3192,0.006137335689499499,0
3193,0.028063243952052543,0
3194,-0.1031939433572553,0
3195,-0.0316499062428925,0
3196,-0.046988466151570464,0
3197,0.034542822294295575,0
3198,0.05286850391055599,0
3199,-0.02511656741068224,0
3200,0.400187437472737,0
3201,3.950702790523012,0
3202,6.587457605497515,0
3203,-1.10192305011287,0
3204,-1.4810466498798436,0
3205,1.4182680052482977,0
3206,-0.8246952773045785,0
3207,0.17571239060758864,0
3208,-0.05091093547870656,0
3209,-0.0612257200360168,0
3210,0.028028240986876077,0
3211,0.0038921595674829834,0
3212,-0.059104291486037026,0
3213,-0.07636557204296032,0
3214,0.046471110015142356,0
3215,-0.02166494835696347,0
3216,-0.060070992244536096,0
3217,-0.047665019913042554,0
3218,0.08621580539418167,0
3219,-0.01914935618540854,0
3220,0.43249366352175034,0
3221,4.0672721354035755,0
3222,6.586239015236155,0
3223,-1.131796411252928,0
3224,-1.3650172087169419,0
3225,1.349353344731588,0
3226,-0.7848845342152655,0
3227,0.2294071008114845,0
3228,-0.04206582765899761,0
3229,-0.012059322475726338,0
3230,0.09902295830517355,0
3231,0.1121064500166911,0
3232,0.015894187390282845,0
3233,-0.061424534402484555,0
3234,0.0700863170195905,0
3235,0.00961534534081436,0
3236,0.011538599601902504,0
3237,0.09227001101502674,0
3238,-0.01631578960560865,0
3239,-0.009469510827799987,0
3240,0.32211144905341293,0
3241,4.1025631590285165,0
3242,6.6557168796548085,0
3243,-1.161078017560574,0
3244,-1.3773530911385414,0
3245,1.3877254056749457,0
3246,-0.771251107416569,0
3247,0.12032685786220793,0
3248,-0.14166995221097783,0
3249,-0.06184322956681097,0
3250,-0.09150487464855214,0
3251,-0.03702968655829781,0
3252,-0.0876449364538938,0
3253,-0.06933737840423598,0
3254,-0.03993800731770842,0
3255,-0.04583853027322957,0
3256,-0.013272598731987315,0
3257,-0.02267041618644916,0
3258,-0.04051641235957754,0
3259,-0.024428294130379988,0
3260,0.24728812656451735,0
3261,3.980041605137605,0
3262,6.571248805498354,0
3263,-1.229884117817058,0
3264,-1.438682019401096,0
3265,1.4447493314519628,0
3266,-0.7788459166693826,0
3267,0.20813433692340663,0
3268,-0.041826491127326865,0
3269,-0.004899226694991224,0
3270,-0.003158673293360662,0
3271,0.07046233656209605,0
3272,-0.056558462830124424,0
3273,0.042139948208543325,0
3274,-0.0017723481299972109,0
3275,0.03737850632065953,0
3276,-0.10024789246335067,0
3277,-0.04813421258132564,0
3278,-0.10194693197426101,0
3279,-0.00781761616138317,0
3280,0.45653911679012715,0
3281,4.044048854719172,0
3282,6.591539644400462,0
3283,-1.1982551429276431,0
3284,-1.4496135099630307,0
3285,1.2925006363118476,0
3286,-0.9126488547009768,0
3287,0.20331231025085317,0
3288,-0.1091198718129829,0
3289,-0.0850227056726939,0
3290,-0.05909323045403059,0
3291,-0.07130117246628873,0
3292,-0.10397156694964885,0
3293,-0.12859000557175446,0
3294,-0.010392152868844123,0
3295,-0.09753975816625873,0
3296,-0.11598679268051278,0
3297,-0.10180221062292848,0
3298,-0.07563552649544776,0
3299,-0.09258695262257487,0
3300,0.4249766498155091,0
3301,4.023476925953426,0
3302,6.54145825823113,0
3303,-1.2231461489025255,0
3304,-1.453662048437479,0
3305,1.2991740721757796,0
3306,-0.8752456763907293,0
3307,0.13557751629243248,0
3308,-0.16351748133061,0
3309,-0.156758555348867,0
3310,-0.0025066828537743807,0
3311,-0.16912124929774572,0
3312,-0.04448304783453268,0
3313,-0.036589638899343815,0
3314,-0.06958432127612307,0
3315,-0.012838809651781462,0
3316,-0.09716197162828766,0
3317,-0.11459446018399042,0
3318,-0.1158515797255184,0
3319,0.007436837584959083,0
3320,0.3135177421736095,0
3321,4.018042441956549,0
3322,6.450148076720121,0
3323,-1.3065834777134193,0
3324,-1.443698831561527,0
3325,1.3891980700819888,0
3326,-0.8832750463253992,0
3327,0.18142504308342888,0
3328,-0.12648900939514304,0
3329,-0.07436307433250744,0
3330,0.07673732097716089,0
3331,-0.16005136343976498,0
3332,-0.034156008533627186,0
3333,-0.16577717363944885,0
3334,-0.0445140953135262,0
3335,0.009284998288019417,0
3336,-0.08917181442165938,0
3337,-0.10261617157576672,0
3338,-0.03760802752026778,0
3339,-0.02744450570734483,0
3340,0.3269430139900936,0
3341,4.064958313234328,0
3342,6.573843937788319,0
3343,-1.3653895810677346,0
3344,-1.5494362381905373,0
3345,1.388204035195525,0
3346,-0.834411161430205,0
3347,0.13700065006733117,0
3348,-0.20504510626310224,0
3349,-0.14212884644653234,0
3350,-0.03228255150819754,0
3351,-0.09660045241342483,0
3352,-0.023804021121254293,0
3353,-0.07048155631683851,0
3354,0.014037851205506671,0
3355,-0.04203277324146099,0
3356,-0.020034677220818545,0
3357,-0.04770563028174708,0
3358,-0.0580063539608991,0
3359,0.06153941983530362,0
3360,0.3935289237466047,0
3361,4.247966518484333,0
3362,6.597037982780763,0
3363,-1.1373857414809625,0
3364,-1.4032411730927759,0
3365,1.3726930996048587,0
3366,-0.8478233644534972,0
3367,0.26335749559014626,0
3368,-0.08013113533984945,0
3369,-0.07068360695413518,0
3370,-0.04239532516690218,0
3371,-0.050955787658481896,0
3372,-0.14139264844198346,0
3373,-0.14339506690491097,0
3374,-0.0704599933672923,0
3375,-0.05063198531638159,0
3376,-0.08019220525498305,0
3377,-0.04154518155848035,0
3378,-0.05500654778981719,0
3379,-0.0248923645297636,0
3380,0.47411489653415095,0
3381,4.115015654004266,0
3382,6.654163680581579,0
3383,-1.1128454642150432,0
3384,-1.4015133612428776,0
3385,1.369645310081561,0
3386,-0.7528732452028036,0
3387,0.23716166059268085,0
3388,-0.05796023032493061,0
3389,-0.14967887948408728,0
3390,-0.033815872451748635,0
3391,-0.0993871968699857,0
3392,0.007041092502326346,0
3393,-0.033581911230706585,0
3394,-0.005737618162389102,0
3395,-0.12409682233522343,0
3396,-0.12714467704474708,0
3397,-0.10643765185603683,0
3398,0.008609327150267021,0
3399,-0.13391027749803228,0
3400,0.40170422873350764,0
3401,4.107121435571681,0
3402,6.530486112335901,0
3403,-1.2044902770068342,0
3404,-1.4285474731990637,0
3405,1.3059627237719658,0
3406,-0.8489179147394068,0
3407,0.13308003360818263,0
3408,-0.01757613801424423,0
3409,-0.13721122594781232,0
3410,0.04865266777670889,0
3411,-0.08474966955391663,0
3412,-0.03248610234942997,0
3413,-0.016100784646920198,0
3414,-0.1242693916366443,0
3415,-0.0040594838492982455,0
3416,0.0032349195143862863,0
3417,-0.10317811105421035,0
3418,-0.037403970991701695,0
3419,0.12248554542610612,0
3420,0.39037759465626803,0
3421,4.078227530350253,0
3422,6.583780710152637,0
3423,-1.252440044711847,0
3424,-1.5031984882346348,0
3425,1.3854934760477178,0
3426,-0.7846683427278034,0
3427,0.2571808387952457,0
3428,-0.040354704495999046,0
3429,-0.07455512638986436,0
3430,0.028134426144928136,0
3431,-0.08987310062531963,0
3432,-0.01932090528074795,0
3433,-0.03970198040469615,0
3434,0.010118404573507489,0
3435,-2.366205381436684e-05,0
3436,0.008237987744320722,0
3437,-0.12491852004774096,0
3438,-0.030678597900355892,0
3439,-0.03117821301218634,0
3440,0.47995089238153665,0
3441,4.1744889604445605,0
3442,6.628301964679313,0
3443,-1.109264194940936,0
3444,-1.3732248665904088,0
3445,1.443187288900748,0
3446,-0.7881069192180856,0
3447,0.28122880144146667,0
3448,-0.10299985342811371,0
3449,-0.035964958148879546,0
3450,0.011891870203171995,0
3451,0.04981971318453373,0
3452,0.05049060966748072,0
3453,0.04277145166257397,0
3454,0.014036602901881017,0
3455,0.06948612948797935,0
3456,0.07882297062099562,0
3457,0.010133422458883528,0
3458,0.02425063725023871,0
3459,-0.09779041363963736,0
3460,0.39709416054361574,0
3461,4.126781783061313,0
3462,6.50635663408991,0
3463,-1.2055741823712434,0
3464,-1.397446315575568,0
3465,1.3707472090171513,0
3466,-0.8117038694516724,0
3467,0.2588013935145952,0
3468,-0.07627186909308675,0
3469,-0.07111385484478834,0
3470,0.010249937053992624,0
3471,0.06886280266959958,0
3472,0.07828477121321088,0
3473,-0.08589277683245256,0
3474,-0.01335909101587098,0
3475,0.05963708098748077,0
3476,-0.11540932083243621,0
3477,-0.03161789285169247,0
3478,-0.04428946786268926,0
3479,-0.05449914258149092,0
3480,0.393445273343009,0
3481,4.107315996020146,0
3482,6.586526873416875,0
3483,-1.203378934766564,0
3484,-1.370199891244335,0
3485,1.479764311911893,0
3486,-0.8193642743115466,0
3487,0.1563426070734043,0
3488,-0.029061998212852973,0
3489,0.0050575827197790815,0
3490,0.042853872968324117,0
3491,0.0036476153189097735,0
3492,-0.004619372061744356,0
3493,0.026580183038704214,0
3494,0.02862901363866701,0
3495,-0.017585356355640246,0
3496,0.027884070809981232,0
3497,-0.0128821482845864,0
3498,-0.009418901318263657,0
3499,-0.05400091056413937,0
3500,0.5225841666175761,0
3501,4.222535738087617,0
3502,6.604822879281442,0
3503,-1.1737511998842445,0
3504,-1.3966314147918824,0
3505,1.4910330651785046,0
3506,-0.7501232162775897,0
3507,0.2696810568616971,0
3508,-0.028396719818022404,0
3509,-0.07840928992667187,0
3510,0.008474914775666167,0
3511,-0.007027729474647516,0
3512,-0.027307403782003917,0
3513,-0.011591909875078429,0
3514,-0.07660958585886074,0
3515,-0.07391429086533258,0
3516,0.012436696819606883,0
3517,0.024300662394665537,0
3518,-0.09010188470607287,0
3519,-0.06656819974569406,0
3520,0.3902438731794638,0
3521,4.199734003832146,0
3522,6.516152217235915,0
3523,-1.185991309140664,0
3524,-1.3364781920357103,0
3525,1.3994893751030326,0
3526,-0.7718929200961419,0
3527,0.26253264641915197,0
3528,-0.08655863610498511,0
3529,-0.05358986102533307,0
3530,-0.006296924292140327,0
3531,0.008491031486557821,0
3532,-0.006169059527306207,0
3533,-0.038781036100255364,0
3534,0.04718532871040949,0
3535,0.07690246267726086,0
3536,-0.09238854146599676,0
3537,-0.001371528437742013,0
3538,-0.017615625449438396,0
3539,0.030412469840237055,0
3540,0.3068323343804368,0
3541,4.264091513328922,0
3542,6.51988663492142,0
3543,-1.3093476151459336,0
3544,-1.394020851948075,0
3545,1.3998592770989249,0
3546,-0.7727347910521835,0
3547,0.18314466711616348,0
3548,-0.012297111214960018,0
3549,-0.04738106580725079,0
3550,0.10615835727179637,0
3551,0.0457316350684133,0
3552,-0.024938435052111387,0
3553,-0.07757145672337284,0
3554,0.047278432341998494,0
3555,-0.05233880645570499,0
3556,-0.05925312316508635,0
3557,0.045475309689826486,0
3558,-0.00999976725299119,0
3559,0.056095676022703655,0
3560,0.39505103620603366,0
3561,4.0972837425841835,0
3562,6.497240876870882,0
3563,-1.1993676815320369,0
3564,-1.4019283087616086,0
3565,1.3179166846920647,0
3566,-0.7804186643870543,0
3567,0.23517488963833094,0
3568,-0.030858474907316687,0
3569,-0.08877853233963212,0
3570,-0.0009459208451333793,0
3571,0.13456648065010043,0
3572,0.05727633726036853,0
3573,0.004985487576450055,0
3574,-0.09086288702311629,0
3575,0.027145833275411067,0
3576,0.09050186198808063,0
3577,0.010461372194226062,0
3578,0.07567593225763282,0
3579,-0.0331673786750228,0
3580,0.3260021723330344,0
3581,4.113106900637831,0
3582,6.528975923665209,0
3583,-1.1922032526305775,0
3584,-1.3226404109398742,0
3585,1.376057316883588,0
3586,-0.7913660476312359,0
3587,0.18496927952609574,0
3588,-0.001496975997871547,0
3589,0.0766513557318634,0
3590,0.02549521759370329,0
3591,0.010066428558185219,0
3592,0.041390630562511486,0
3593,-0.04207072212012559,0
3594,-0.04126753519005778,0
3595,-0.07903287840285167,0
3596,-0.01140366643144379,0
3597,0.10045057586031539,0
3598,-0.10105625934242664,0
3599,0.01882100608186939,0
3600,0.45313939155448696,0
3601,4.036268289753391,0
3602,6.544886948332158,0
3603,-1.155544308261399,0
3604,-1.381929394290804,0
3605,1.4753713502728298,0
3606,-0.8779013043782891,0
3607,0.23553071032553977,0
3608,-0.0033651569878573873,0
3609,-0.05270035846965273,0
3610,0.03314220879407578,0
3611,0.004448665255126896,0
3612,0.03290515832920396,0
3613,-0.05874773982495689,0
3614,-0.01538964617467782,0
3615,-0.023611159466377356,0
3616,-0.064536898949553,0
3617,-0.001240138754057013,0
3618,-0.10331390076076985,0
3619,-0.1056782976240789,0
3620,0.3911579955425769,0
3621,4.00315169612315,0
3622,6.5699398925978505,0
3623,-1.2852305222474247,0
3624,-1.5791443099703537,0
3625,1.4330175256503643,0
3626,-0.834509878456514,0
3627,0.17364167729765156,0
3628,-0.09058768283674412,0
3629,0.06630180283745409,0
3630,0.025907638718755836,0
3631,-0.07492128861737994,0
3632,0.08858760865015516,0
3633,0.009031547901194096,0
3634,-0.07291451471524604,0
3635,-0.041319473409114536,0
3636,0.10184148199634695,0
3637,0.06793683981073494,0
3638,0.02507080853602931,0
3639,0.028433382067470578,0
3640,0.48983215400745667,0
3641,4.1760059126154285,0
3642,6.57775573933786,0
3643,-1.2261197805714446,0
3644,-1.2128909844301092,0
3645,1.4205622163090388,0
3646,-0.7869971127864183,0
3647,0.26717309691421864,0
3648,0.07644586281987756,0
3649,0.13448837454986762,0
3650,-0.013029622609095681,0
3651,0.03859348122665797,0
3652,0.0861554463894813,0
3653,0.015571206356534611,0
3654,0.046818881256979764,0
3655,0.056223251134174965,0
3656,0.029427256885689597,0
3657,0.024278771625060445,0
3658,-0.04858942541218081,0
3659,-0.02701447121112703,0
3660,0.46346957156325513,0
3661,4.140431544819625,0
3662,6.479996155497861,0
3663,-1.273225067918014,0
3664,-1.422068487382497,0
3665,1.30974840939417,0
3666,-0.8282391886898585,0
3667,0.2788616887096798,0
3668,-0.07310124116532472,0
3669,-0.11125010754701595,0
3670,0.038899219452948774,0
3671,0.05010498900870757,0
3672,0.004895721550729812,0
3673,0.05963833716353034,0
3674,0.044443887525470384,0
3675,0.024429100613802195,0
3676,-0.048503737324254406,0
3677,0.004594496022666612,0
3678,-0.033654885359536674,0
3679,-0.07534830863115809,0
3680,0.4075646267353084,0
3681,4.09987631056855,0
3682,6.561052146403997,0
3683,-1.2958770105283204,0
3684,-1.335051243397832,0
3685,1.4005541736463774,0
3686,-0.7555342649711371,0
3687,0.30283658965595245,0
3688,0.049058805472428635,0
3689,-0.06250158845047515,0
3690,0.027151581644591638,0
3691,-0.0787820865527938,0
3692,0.05382927716882131,0
3693,0.033126826695987086,0
3694,0.033219594526566296,0
3695,0.0008379890358567003,0
3696,0.004659707314636448,0
3697,-0.02154745985245698,0
3698,-0.03695478702639686,0
3699,0.00810807327932151,0
3700,0.3472599711068004,0
3701,3.9950266468243925,0
3702,6.394702027011992,0
3703,-1.3508233041366393,0
3704,-1.3935198166096734,0
3705,1.3338392774195094,0
3706,-0.9140228661533126,0
3707,0.13840092649165425,0
3708,-0.08111557574963879,0
3709,0.004103119081245804,0
3710,0.037234098878971986,0
3711,0.12750415877597027,0
3712,-0.026835749656816343,0
3713,0.009074256968400758,0
3714,0.053134866999584626,0
3715,0.0517919196667946,0
3716,-0.008166847862420605,0
3717,-0.03779757576180886,0
3718,-0.030125201536439952,0
3719,-0.05033559334401994,0
3720,0.43212972301388675,0
3721,4.208527724714735,0
3722,6.603525907476995,0
3723,-1.2551766877208674,0
3724,-1.4197435006990107,0
3725,1.3196911964244626,0
3726,-0.7722800319718132,0
3727,0.17288675489458424,0
3728,0.03918835747010076,0
3729,-0.1583550451071521,0
3730,-0.08269595948155394,0
3731,-0.1236839883368667,0
3732,-0.08856524344241835,0
3733,-0.02817310667328612,0
3734,-0.08877147416988174,0
3735,-0.06267649863845623,0
3736,-0.01733811789902467,0
3737,-0.07480330767505844,0
3738,-0.008832190990250382,0
3739,0.09928502991585987,0
3740,0.4465668030827118,0
3741,4.110946220633366,0
3742,6.599386924960289,0
3743,-1.228484090744545,0
3744,-1.3926478669136535,0
3745,1.361060858998963,0
3746,-0.7474928332898942,0
3747,0.19103676383006846,0
3748,0.04602257529541437,0
3749,-0.06667952864599291,0
3750,-0.10989308659004687,0
3751,-0.08610429182954964,0
3752,-0.0665260134547833,0
3753,-0.08549014205161579,0
3754,-0.007561849324666978,0
3755,-0.04399032835801492,0
3756,-0.041018347539371135,0
3757,-0.04119758797022148,0
3758,0.05671939353842701,0
3759,0.005148317723204317,0
3760,0.474704705762554,0
3761,4.234159024788522,0
3762,6.519818705655744,0
3763,-1.3198716141996645,0
3764,-1.2575205812851138,0
3765,1.48412214951782,0
3766,-0.8100798781054344,0
3767,0.2744237975447585,0
3768,0.006833662801708065,0
3769,0.09145378772734111,0
3770,0.05915126027447268,0
3771,0.011122857729661456,0
3772,-0.016550103318748944,0
3773,0.08530121656126531,0
3774,-0.0033231086006080095,0
3775,0.03755991068015648,0
3776,-0.010859612570104638,0
3777,-0.04664846749391385,0
3778,0.057556609608591,0
3779,0.07629713564438019,0
3780,0.47750598296257085,0
3781,4.214783802195414,0
3782,6.5285360262571395,0
3783,-1.2577314678936864,0
3784,-1.411132595291765,0
3785,1.430778909010714,0
3786,-0.79776122954099,0
3787,0.15764029058324677,0
3788,-0.113194815637873,0
3789,-0.014060623676944384,0
3790,-0.015655903540747376,0
3791,-0.026327836159496104,0
3792,-0.11150435022489431,0
3793,0.07238814008934544,0
3794,0.0021726361171342575,0
3795,0.009866578413071796,0
3796,-0.043081621510387996,0
3797,-0.0030262680537164223,0
3798,0.03861295659884813,0
3799,-0.07467626193773513,0
3800,0.405635171012371,0
3801,4.1746840055967205,0
3802,6.4782498019916925,0
3803,-1.2720135669357882,0
3804,-1.3756029943190322,0
3805,1.3532966306283611,0
3806,-0.8579948503797662,0
3807,0.22264482028853053,0
3808,-0.0017715059264937893,0
3809,-0.07209514495594346,0
3810,0.058178524586466884,0
3811,-0.032650381590711215,0
3812,-0.12099248109039888,0
3813,0.07129540338463802,0
3814,0.04828365339492578,0
3815,-0.027913875591972982,0
3816,-0.023465862577593262,0
3817,-0.001885645749927868,0
3818,0.008080222001648207,0
3819,-0.04789137481745358,0
3820,0.4080262298863748,0
3821,4.1502176328849885,0
3822,6.500356908222318,0
3823,-1.29239503620054,0
3824,-1.382487735079149,0
3825,1.3712914013086395,0
3826,-0.8080732567570674,0
3827,0.2315893488870229,0
3828,-0.132769082745685,0
3829,-0.14764255567780563,0
3830,-0.08490467225988818,0
3831,-0.12402805362592759,0
3832,-0.013988435282747258,0
3833,-0.025109725217973593,0
3834,0.0002204387521238505,0
3835,-0.05056146578894447,0
3836,0.0059930055544297894,0
3837,0.13265394581888207,0
3838,0.02316339381951215,0
3839,0.08799603846887427,0
3840,0.4638044015663655,0
3841,4.302898960047631,0
3842,6.621624877480456,0
3843,-1.233815078474188,0
3844,-1.223192385128841,0
3845,1.504388380055679,0
3846,-0.7024697745983183,0
3847,0.29466636711333105,0
3848,0.029997207392781094,0
3849,-0.05522539270177035,0
3850,0.016645844896031728,0
3851,-0.015392221130518531,0
3852,-0.035011400968148296,0
3853,-0.01518693540144125,0
3854,0.03243621993843343,0
3855,-0.005099668654739744,0
3856,-0.03875254788714445,0
3857,0.003951719347430797,0
3858,-0.019978103688721553,0
3859,-0.0073030344445869436,0
3860,0.5461510448705906,0
3861,4.127633244570588,0
3862,6.554368927837784,0
3863,-1.3033312367499381,0
3864,-1.3647673790294221,0
3865,1.3206216126341153,0
3866,-0.8448647499335799,0
3867,0.16525497280919396,0
3868,-0.08287140714032375,0
3869,-0.1410633126530601,0
3870,0.006081887821251856,0
3871,0.12406978844220165,0
3872,-0.04472406646883892,0
3873,-0.00545579946249772,0
3874,0.013262352672149147,0
3875,-0.019643382984124366,0
3876,-0.04459140762769586,0
3877,-0.04589340710758685,0
3878,-0.02810693165054709,0
3879,-0.03890993429655443,0
3880,0.4085802012625399,0
3881,4.24703230387095,0
3882,6.551032711664507,0
3883,-1.1804917776296393,0
3884,-1.354013258673861,0
3885,1.361450916269295,0
3886,-0.9034804681992565,0
3887,0.17567729401634385,0
3888,-0.1362235726438492,0
3889,-0.08101353802883564,0
3890,-0.02535245147405031,0
3891,-0.007529749932089602,0
3892,-0.0479380648069441,0
3893,-0.05976771920867423,0
3894,0.05476127971128414,0
3895,-0.009689876102978594,0
3896,0.02662608668442495,0
3897,0.01517309386858989,0
3898,-0.01679839270258225,0
3899,-0.0022496223748478296,0
3900,0.38744913524502084,0
3901,4.231638255379797,0
3902,6.506919754037946,0
3903,-1.3674691688577199,0
3904,-1.3056166467223909,0
3905,1.3824203054053632,0
3906,-0.7592512017445496,0
3907,0.1577477712097212,0
3908,-0.01705523991242775,0
3909,-0.043945694270700955,0
3910,0.05012810933271462,0
3911,0.05881609354402699,0
3912,-0.030680189557102562,0
3913,0.05787317212458332,0
3914,0.03723153303518274,0
3915,0.08143997957310489,0
3916,-0.060273883839951,0
3917,0.005033873263107203,0
3918,-0.06376653835458704,0
3919,-0.026864321402655964,0
3920,0.474684474464879,0
3921,4.1713490378550775,0
3922,6.513667957578013,0
3923,-1.2461128043382956,0
3924,-1.30233560642161,0
3925,1.4301124946421335,0
3926,-0.8223590946031262,0
3927,0.2203270541418817,0
3928,-0.06715315216055723,0
3929,-0.11050481942425378,0
3930,0.007418333864198025,0
3931,0.025032981779715385,0
3932,-0.060358517091849695,0
3933,0.01455958057835103,0
3934,0.01310329939274274,0
3935,0.019114778069191825,0
3936,-0.05263304964424592,0
3937,0.007100826126982739,0
3938,0.010798149401577906,0
3939,-0.011078414473642696,0
3940,0.4626092715448138,0
3941,4.2225348135325,0
3942,6.475724915234545,0
3943,-1.405356778105894,0
3944,-1.2356591053377657,0
3945,1.3842977884412577,0
3946,-0.8875210022693857,0
3947,0.20552261111368875,0
3948,-0.06381260662806973,0
3949,-0.007916020654112024,0
3950,-0.02818329160278328,0
3951,-0.08302229976043413,0
3952,-0.07361588136754946,0
3953,0.004404760496585541,0
3954,-0.12391436002830104,0
3955,0.02521468624077407,0
3956,-0.027742998721327093,0
3957,-0.04938811370243951,0
3958,-0.09933184852170425,0
3959,-0.05250264515713945,0
3960,0.41707811748405377,0
3961,4.1609018967176645,0
3962,6.506145177075967,0
3963,-1.2553210366136922,0
3964,-1.3123498475856719,0
3965,1.297107554725441,0
3966,-0.8101031773888377,0
3967,0.16142085002497605,0
3968,-0.04762592911830616,0
3969,0.0020906959266979025,0
3970,0.03798135809510482,0
3971,-0.07629521411974526,0
3972,-0.021766748980459043,0
3973,-0.04097781122361221,0
3974,-0.13145278223731938,0
3975,-0.029073791838202967,0
3976,0.06272410624174991,0
3977,-0.08667251457242753,0
3978,-0.047734185086212744,0
3979,-0.08787472570320157,0
3980,0.3345149447270599,0
3981,4.225281978392262,0
3982,6.513966005957219,0
3983,-1.4175505484937205,0
3984,-1.278357046136049,0
3985,1.3344335922301505,0
3986,-0.7781926754182646,0
3987,0.2327728464387519,0
3988,-0.09518552421347518,0
3989,0.03769753422029384,0
3990,-0.04633082624649294,0
3991,-0.004206635616092632,0
3992,-0.0918954583230414,0
3993,0.036851255290451884,0
3994,-0.005541800182142998,0
3995,0.013633458310017527,0
3996,-0.1368806113018584,0
3997,-0.08531934208499335,0
3998,-0.03769255938805853,0
3999,-0.0014277649442940438,0
4000,0.4091359604781312,0
4001,4.242890159167931,0
4002,6.468494764880356,0
4003,-1.3830287516912092,0
4004,-1.2763535450754702,0
4005,1.4382770271807421,0
4006,-0.8093982150687589,0
4007,0.2411715627219817,0
4008,-0.10707383421267078,0
4009,-0.014451327894653282,0
4010,-0.04811448109935178,0
4011,-0.032683791148668456,0
4012,-0.13197655181233364,0
4013,-0.07496361240806419,0
4014,-0.001536987581812286,0
4015,0.05052876432408045,0
4016,-0.05623241354862264,0
4017,0.014386344520136554,0
4018,-0.0221620734331954,0
4019,-0.04054350648939757,0
4020,0.4599020331829148,0
4021,4.255626322209128,0
4022,6.495239792374294,0
4023,-1.3474466799363285,0
4024,-1.2642227734673421,0
4025,1.3777646409575675,0
4026,-0.8680468786475739,0
4027,0.18995241956811185,0
4028,0.035567158649698324,0
4029,0.002999284655364868,0
4030,0.10116088983032478,0
4031,-0.025216350100452867,0
4032,-0.021519472001162356,0
4033,0.009935297220558139,0
4034,-0.06370430210288272,0
4035,0.009446505861740489,0
4036,-0.00830565132417434,0
4037,0.015467456399040964,0
4038,-0.01068134037389851,0
4039,0.06624791149687234,0
4040,0.4482029052011908,0
4041,4.204927057925814,0
4042,6.476885560947212,0
4043,-1.3625469828669796,0
4044,-1.3532829443939236,0
4045,1.365662721066826,0
4046,-0.7708180990909902,0
4047,0.11275600076723846,0
4048,-0.023278028677127485,0
4049,-0.04524204765876706,0
4050,-0.029479188862662598,0
4051,-0.06467377617610645,0
4052,0.05842980746165884,0
4053,0.02306832255916922,0
4054,0.06823759921408536,0
4055,0.07268507606666402,0
4056,-0.005497515227471741,0
4057,-0.015580713372368195,0
4058,0.03933843705639691,0
4059,-0.028891097054194837,0
4060,0.33235548449184266,0
4061,4.121181633759559,0
4062,6.540327038656175,0
4063,-1.4449522369694956,0
4064,-1.367970141880207,0
4065,1.3406517233933868,0
4066,-0.7717743383237018,0
4067,0.15311693294971454,0
4068,-0.06859171509179532,0
4069,-0.0512053917925158,0
4070,-0.03114736520849505,0
4071,0.014739723700900303,0
4072,-0.049534806128251965,0
4073,-0.036542872110383706,0
4074,-0.07740266821527385,0
4075,-0.019138602520987494,0
4076,0.030177934122605932,0
4077,0.03810557133802518,0
4078,-0.006578992157957033,0
4079,0.03044473561430675,0
4080,0.4521046197857838,0
4081,4.228672670992013,0
4082,6.449567226547582,0
4083,-1.3615464293016475,0
4084,-1.3864667308274294,0
4085,1.4117952000513458,0
4086,-0.8236820781298982,0
4087,0.36734408891565584,0
4088,-0.03622725705500466,0
4089,0.03335759901316223,0
4090,0.017657774679694375,0
4091,0.00549097220624589,0
4092,-0.03443355071264284,0
4093,0.07425169428178646,0
4094,0.05382892498681513,0
4095,-0.0006410721127129097,0
4096,0.10716689649507237,0
4097,0.04928119629966244,0
4098,-0.0003379159066612123,0
4099,0.03853417103468815,0
4100,0.4142402727350281,0
4101,4.190214534459441,0
4102,6.460352602941098,0
4103,-1.426275258642498,0
4104,-1.2074792247126496,0
4105,1.271248853186478,0
4106,-0.930087764675009,0
4107,0.2441884445987984,0
4108,-0.07050592391838817,0
4109,-0.09885181906133506,0
4110,0.00045081746665095665,0
4111,-0.032211717650308835,0
4112,-0.08022286596115769,0
4113,-0.008160602316971945,0
4114,-0.0719432795704542,0
4115,-0.058365483026657394,0
4116,0.03931616669862986,0
4117,-0.03141418864684298,0
4118,0.04064523374290699,0
4119,-0.20646784030910012,0
4120,0.4129471187505289,0
4121,4.28520685286845,0
4122,6.49366884472528,0
4123,-1.3784916450183624,0
4124,-1.1972029230548205,0
4125,1.3521239529353726,0
4126,-0.7559514293534455,0
4127,0.3285112032175449,0
4128,0.07449905217376207,0
4129,-0.014497892778628441,0
4130,0.07364069685957975,0
4131,0.08842436188339384,0
4132,0.0014747573008586784,0
4133,0.02500288964743914,0
4134,0.05878748397370257,0
4135,0.05717596686806813,0
4136,0.0787153795855838,0
4137,-0.05391514196356784,0
4138,0.03962592258420887,0
4139,0.0005156015720022313,0
4140,0.4325607700340976,0
4141,4.290323192141143,0
4142,6.485717850324539,0
4143,-1.3481205393766922,0
4144,-1.126400559347592,0
4145,1.3845135209862376,0
4146,-0.7142878324193016,0
4147,0.22441378693664352,0
4148,0.0558789604549752,0
4149,0.05427623157753451,0
4150,0.07905539043557773,0
4151,0.03210015811703689,0
4152,0.09160176818687069,0
4153,0.054701347719216614,0
4154,0.06710078599905495,0
4155,0.06917344089671218,0
4156,-0.007161160939887307,0
4157,0.07467910572149264,0
4158,-6.705611163536351e-05,0
4159,0.034069296787829065,0
4160,0.45987082145173763,0
4161,4.345183478099596,0
4162,6.541868639189743,0
4163,-1.2962900708837806,0
4164,-1.24002625827027,0
4165,1.3946176850974348,0
4166,-0.7439098614987124,0
4167,0.1908425512052288,0
4168,-0.07980002708614341,0
4169,0.03423853793708581,0
4170,0.02453687101228156,0
4171,0.04355027178171765,0
4172,0.07629282404206769,0
4173,-0.00811640559474857,0
4174,-0.020124398390736074,0
4175,-0.005142238916395559,0
4176,0.02452726650341284,0
4177,-0.014698167897906839,0
4178,-0.016199852162238255,0
4179,0.054902980441569486,0
4180,0.4712603681510139,0
4181,4.2693710902262625,0
4182,6.486436207778787,0
4183,-1.442562273253803,0
4184,-1.2611883206544043,0
4185,1.3295412573346093,0
4186,-0.7988294468830697,0
4187,0.2603523923320534,0
4188,-0.08909691498747725,0
4189,0.07239754756733818,0
4190,-0.0001630663414899855,0
4191,0.02197246830647797,0
4192,-0.060243278961853525,0
4193,0.018873268870954536,0
4194,0.06321158347879732,0
4195,0.06975764526138778,0
4196,0.09788116810288118,0
4197,-0.0714338448605927,0
4198,0.08197334492470267,0
4199,-0.01937997900596498,0
4200,0.43560200647939296,0
4201,4.23115511543825,0
4202,6.464727443346332,0
4203,-1.2974363425201565,0
4204,-1.1347176475702117,0
4205,1.358581349523899,0
4206,-0.7889335140035078,0
4207,0.27829107358975,0
4208,-0.0661831570307608,0
4209,-0.03202677656364914,0
4210,-0.01861615437458716,0
4211,-0.04831001603969188,0
4212,0.008319736183725467,0
4213,-0.049360829688558955,0
4214,-0.08333248215617374,0
4215,-0.036206367589660414,0
4216,-0.016133598273829663,0
4217,-0.08340730321405039,0
4218,-0.026043328954326372,0
4219,-0.043769189803467376,0
4220,0.374490542727351,0
4221,4.166657642603182,0
4222,6.4562946056157315,0
4223,-1.4509673321491363,0
4224,-1.295415141020494,0
4225,1.3289001952642043,0
4226,-0.8922440495439146,0
4227,0.2500809335486934,0
4228,-0.11124257234173614,0
4229,-0.055412821746255086,0
4230,-0.08152060455638524,0
4231,-0.0847213112313956,0
4232,0.12403206192283883,0
4233,0.029798984353499182,0
4234,0.043757407340131574,0
4235,0.018233038434282374,0
4236,-0.05146220037217882,0
4237,-0.036158557280474325,0
4238,-0.032261631475880626,0
4239,-0.08542470694905982,0
4240,0.3895428378544938,0
4241,4.306002719452556,0
4242,6.424597721560949,0
4243,-1.3843242026491716,0
4244,-1.1848785779761306,0
4245,1.4347487689633396,0
4246,-0.7939297643827632,0
4247,0.29784425932065645,0
4248,0.007318873487541556,0
4249,0.10615986361611146,0
4250,-0.00973527523056568,0
4251,0.0018831446303581856,0
4252,0.0723604611222519,0
4253,-0.010264981991615456,0
4254,-0.09857847902944611,0
4255,-0.014949782405975087,0
4256,-0.015921180556439596,0
4257,0.04115760082343151,0
4258,-0.06973104598876965,0
4259,0.023825561734261588,0
4260,1.5139772514093413,1
4261,3.6951144356643333,1
4262,0.9957546994627579,1
4263,-0.335848335539164,1
4264,-0.09366846141351531,1
4265,0.060237465685608206,1
4266,0.030553018610455035,1
4267,-0.05920511614419379,1
4268,0.05040857807740906,1
4269,-0.014883080444489931,1
4270,1.4851026683258153,1
4271,3.701677205173932,1
4272,0.9097656523666762,1
4273,-0.33924497523709635,1
4274,-0.10392148460411695,1
4275,-0.14930054928904285,1
4276,-0.10053889654352016,1
4277,-0.0004421837020588057,1
4278,0.0548865577236679,1
4279,0.0014068855984547771,1
4280,1.544505076271685,1
4281,3.6296658631469847,1
4282,0.9597108616594667,1
4283,-0.4507171947919568,1
4284,-0.12212987941614677,1
4285,0.03552015538143639,1
4286,-0.07789007950245015,1
4287,0.012713698196819546,1
4288,-0.0015617958140689801,1
4289,-0.053220443105224904,1
4290,1.5430955741107666,1
4291,3.714339380135989,1
4292,0.9553344864155748,1
4293,-0.47042559201987777,1
4294,-0.13259739492847772,1
4295,-0.026500403857610152,1
4296,0.02043505432712925,1
4297,0.019962103830274896,1
4298,0.05224827802354082,1
4299,-0.018882728307587866,1
4300,1.6045716166208237,1
4301,3.6372918818923985,1
4302,1.0319858554558978,1
4303,-0.4953619534914612,1
4304,-0.19293626118385215,1
4305,-0.0840421300533926,1
4306,-0.029243736977560233,1
4307,0.010067410607383814,1
4308,0.021794465888502805,1
4309,-0.08012086492697632,1
4310,1.5574100228236112,1
4311,3.6475593782991047,1
4312,1.0044196912392813,1
4313,-0.4687636904011907,1
4314,-0.11593242150816153,1
4315,-0.033787158960351116,1
4316,-0.02511803348286559,1
4317,0.016836388095201132,1
4318,0.05600975733360765,1
4319,-0.04927803894817256,1
4320,1.4980648784184127,1
4321,3.6405719856802476,1
4322,0.9502753239568497,1
4323,-0.3511958847697107,1
4324,-0.10396710607936296,1
4325,-0.0782594146051992,1
4326,0.07827721965689848,1
4327,-0.021569099446476357,1
4328,0.0017009042788811413,1
4329,0.07724156365200814,1
4330,1.5575600548246331,1
4331,3.593054596368592,1
4332,0.9973340748472352,1
4333,-0.34028917175215617,1
4334,-0.044741807945869225,1
4335,0.019284056746418123,1
4336,-0.009284427036395645,1
4337,0.02363538822907634,1
4338,0.02957024313374939,1
4339,0.06650357984736098,1
4340,1.4759191944892072,1
4341,3.599241746424927,1
4342,1.0354992434935768,1
4343,-0.4600442895175748,1
4344,-0.056973477633093066,1
4345,-0.029126798218458497,1
4346,0.04816071691427952,1
4347,0.02759465371542906,1
4348,0.011459031296686625,1
4349,0.04457971590133682,1
4350,1.491616945808833,1
4351,3.638533578232397,1
4352,0.9689138794311907,1
4353,-0.3459360853065567,1
4354,-0.0976219731387003,1
4355,0.05781019798067391,1
4356,0.018595927301431107,1
4357,0.04994509406511813,1
4358,-0.0788262948772666,1
4359,0.14295711824013047,1
4360,0.3754038661690256,0
4361,4.350642771820997,0
4362,6.400212215226062,0
4363,-1.3657732344521103,0
4364,-1.171396911357896,0
4365,1.3498984158207883,0
4366,-0.920673212885808,0
4367,0.1665247312311948,0
4368,0.0005651677670728775,0
4369,0.014187768699316447,0
4370,-0.0069177224965480885,0
4371,-0.0031435462858015115,0
4372,-0.026635376240177252,0
4373,0.052115682994046245,0
4374,-0.05931066283156559,0
4375,-0.029238931082639127,0
4376,-0.12166964139095329,0
4377,-0.08442563204871863,0
4378,0.06318296943049845,0
4379,0.05111816233354212,0
4380,0.5487336487357124,0
4381,4.344049208702845,0
4382,6.439777379586165,0
4383,-1.3258838770605368,0
4384,-1.1551972586407049,0
4385,1.3722594853209509,0
4386,-0.8363915710907498,0
4387,0.188125006169038,0
4388,0.00348818175957056,0
4389,0.1015237939372994,0
4390,0.09493350911151924,0
4391,-0.04081925222915577,0
4392,0.09527169123426785,0
4393,0.03904852099657508,0
4394,0.021740246832528242,0
4395,0.028208599579724197,0
4396,-0.02638793051322716,0
4397,0.11689337024007809,0
4398,0.07022440494287077,0
4399,-0.05493268701799911,0
4400,0.4056454479539122,0
4401,4.239026195656793,0
4402,6.600447954122867,0
4403,-1.3591007132319912,0
4404,-1.2594219629359142,0
4405,1.384873348766549,0
4406,-0.7766654654859714,0
4407,0.2534161234908611,0
4408,0.03406281398922979,0
4409,-0.0478592884424658,0
4410,-0.03795524540818926,0
4411,-0.0706139265938906,0
4412,0.019651411866037166,0
4413,0.08602439916588189,0
4414,0.012862619141993985,0
4415,0.05837120612365098,0
4416,0.02843815650260812,0
4417,0.06317786282446534,0
4418,0.08627791046398134,0
4419,0.15285531892499218,0
4420,0.42426769810324233,0
4421,4.279640694749348,0
4422,6.453411804044835,0
4423,-1.4238837670232465,0
4424,-1.2391375221850258,0
4425,1.3706831892804958,0
4426,-0.7675464620637213,0
4427,0.19739357159650173,0
4428,-0.03500141272873917,0
4429,0.06317500042373725,0
4430,0.05011676093682832,0
4431,-0.01766805716689949,0
4432,0.021159583268564035,0
4433,-0.057614532277555926,0
4434,-0.003504385730619286,0
4435,0.0064192366657695125,0
4436,0.09458275764754022,0
4437,-0.06564554763822864,0
4438,0.01712527822639047,0
4439,-0.10857980661245428,0
4440,0.38395270774777573,0
4441,4.237066651207896,0
4442,6.422825504390606,0
4443,-1.4389330213179747,0
4444,-1.3262302541041335,0
4445,1.3715543439534394,0
4446,-0.8211588940757683,0
4447,0.2204336232198926,0
4448,-0.06478473619288877,0
4449,-0.09178740532803414,0
4450,0.01682715014381469,0
4451,0.00881604157190538,0
4452,-0.03211903601265169,0
4453,-0.0024952995671413116,0
4454,-0.03914541477494699,0
