timestamp,value-0,is_anomaly
0,0.21518116999630565,0
1,4.532369447283085,0
2,4.986141614579588,0
3,-3.0736822482307233,0
4,1.5385333674512476,0
5,-0.8503747091277016,0
6,0.2544049717042335,0
7,-0.06791550405709448,0
8,0.06972082930888568,0
9,0.0009665887457901423,0
10,-0.04025054055342884,0
11,0.01970024001946964,0
12,-0.10287432295510379,0
13,-0.05771498089090338,0
14,0.06007160797503451,0
15,0.04874075695056053,0
16,0.003975881478112547,0
17,1.0026261082590482,0
18,6.562382788353522,0
19,1.5828468590639226,0
20,-1.9548370589397541,0
21,1.348466643371336,0
22,-0.5997638491299234,0
23,0.39293525311900857,0
24,-0.07929933243775633,0
25,0.04960247482938226,0
26,-0.08467551738690982,0
27,-0.0805522433499603,0
28,-0.07114859431591601,0
29,-0.04321562677465187,0
30,-0.014685731935767214,0
31,0.00255205757337805,0
32,-0.09616953323289834,0
33,0.0009486388774939819,0
34,2.3956876050932894,0
35,6.820402835326023,0
36,-1.7419878721145698,0
37,0.1525671179477957,0
38,0.1453972763441302,0
39,-0.1678418021905345,0
40,0.008661155461818039,0
41,0.01294462415634007,0
42,-0.03580159229213709,0
43,-0.030561629581436565,0
44,0.08125748199999729,0
45,0.03357239122298447,0
46,0.05436921824788165,0
47,0.010282786055794538,0
48,0.05496355874852948,0
49,-0.05403110037435985,0
50,0.25211530416434474,0
51,4.589184705184343,0
52,5.042615535566062,0
53,-3.014059063837169,0
54,1.5694972373224088,0
55,-0.7037960797306084,0
56,0.25092532850791366,0
57,-0.07668189113917773,0
58,-0.03372824557761085,0
59,-0.08335123203029511,0
60,-0.011779026422602853,0
61,-0.018114784165319895,0
62,-0.03808955317514136,0
63,-0.0027657507422896724,0
64,-0.04914627468015917,0
65,0.09092842965490086,0
66,-0.01529549674159831,0
67,0.9704631541140671,0
68,6.399273042035148,0
69,1.517365282063863,0
70,-1.9833823114656606,0
71,1.2487972203347593,0
72,-0.5958967850285009,0
73,0.22611526844760832,0
74,0.01799204813458409,0
75,0.03249707812284222,0
76,0.09123956646492143,0
77,0.04435395495847806,0
78,0.08795108382152991,0
79,0.0837289913306119,0
80,0.10858878431536854,0
81,-0.026490652543549542,0
82,0.06564683876146335,0
83,0.04931429656040279,0
84,2.594887693840489,0
85,6.918254940661511,0
86,-1.7128547958367846,0
87,0.17072457729958662,0
88,0.12981878029788935,0
89,-0.13856370712424548,0
90,0.07193333754948664,0
91,-0.1152275393469332,0
92,-0.08175161277396596,0
93,-0.020629550608424096,0
94,-0.0034474970875074708,0
95,0.08088872004094491,0
96,-0.030596640190959812,0
97,-0.017206201850607537,0
98,0.06882415831219227,0
99,-0.08139870651012963,0
100,0.21692791232443348,0
101,4.6044021596410145,0
102,4.977115674175645,0
103,-3.0515588905538746,0
104,1.5915975354929393,0
105,-0.6126882980160384,0
106,0.3362465399680873,0
107,-0.21434922973458387,0
108,0.055880491799047735,0
109,-0.021995732916391265,0
110,0.125390344172223,0
111,0.0402194086922261,0
112,0.09361641968784044,0
113,0.03578720032167144,0
114,0.03186591187323991,0
115,0.09918022701864347,0
116,0.05657387956165347,0
117,1.0752229854232898,0
118,6.527119820812309,0
119,1.5176589859229836,0
120,-1.894959814334112,0
121,1.367279543283469,0
122,-0.6898981363406018,0
123,0.22420842880173672,0
124,-0.1381500617131874,0
125,0.04327071043750813,0
126,-0.02424201839870329,0
127,-0.09150679178299215,0
128,-0.0016842243052427527,0
129,-0.055686556609182536,0
130,0.031058572796359384,0
131,0.008376167780543982,0
132,0.02893702784011746,0
133,-0.0016394649580818745,0
134,2.5155395273461636,0
135,6.906469084741462,0
136,-1.7960917862470331,0
137,0.17912818581530185,0
138,0.1918446516428592,0
139,-0.09062170097630771,0
140,0.012450759939476863,0
141,0.033404080435292235,0
142,0.04133024995187539,0
143,0.014908118575682774,0
144,0.027282800372872416,0
145,0.020297131311329455,0
146,-0.023134615123572635,0
147,0.026872410831147792,0
148,0.0230260254854224,0
149,-0.0837832748397524,0
150,0.21794208757918468,0
151,4.607186233301935,0
152,4.9468311053189185,0
153,-3.0770270862480658,0
154,1.5111851868758555,0
155,-0.750508187558919,0
156,0.3404747110605677,0
157,-0.08868491774733535,0
158,-0.018339930281064978,0
159,0.017845567968907617,0
160,-0.021795398619062666,0
161,0.06412223480996113,0
162,-0.0023141007494363952,0
163,-0.07333610393096085,0
164,-0.011851693072444137,0
165,-0.008632447739964117,0
166,-0.029934387609829336,0
167,0.9975724262639224,0
168,6.478708673927833,0
169,1.5279863218343068,0
170,-1.9576016427535678,0
171,1.286273340083535,0
172,-0.559917119593469,0
173,0.23213988127044005,0
174,-0.13531220068492045,0
175,0.04928908955937389,0
176,0.09057974726520056,0
177,0.08900131690248413,0
178,0.009074165583222958,0
179,0.0076016662937590344,0
180,0.11208821612284157,0
181,0.11297583830131,0
182,0.024194284824034663,0
183,0.08661382805800599,0
184,2.5813851533983816,0
185,6.972916082666337,0
186,-1.6941127819109218,0
187,0.2583124229867885,0
188,0.23087944248544479,0
189,-0.0042082456199856386,0
190,0.0012685368677406161,0
191,0.10183767492220791,0
192,0.007929598216289989,0
193,0.09266830527609131,0
194,-0.026504906953489386,0
195,0.0592643268810181,0
196,0.07163913945733769,0
197,0.1118015588452391,0
198,-0.07407439180915289,0
199,0.05306702442560667,0
200,0.29685585619015525,0
201,4.496176937072104,0
202,4.962460095940947,0
203,-3.0664074629091065,0
204,1.57195310962661,0
205,-0.698572231338888,0
206,0.34570446986751435,0
207,-0.1560021026889301,0
208,-0.03786607220155191,0
209,-0.13548900001409853,0
210,0.026156457722370095,0
211,0.03705865848055741,0
212,-0.07796561481550497,0
213,0.04795816717776785,0
214,0.041225883635105584,0
215,0.060629369301124274,0
216,-0.0142426836170771,0
217,0.9929724734218688,0
218,6.419880118950539,0
219,1.5099729996199462,0
220,-1.9576292465323892,0
221,1.227837783003155,0
222,-0.5685747902389044,0
223,0.38460459903778266,0
224,0.045575253677993956,0
225,0.02531630085367556,0
226,0.17930255237601966,0
227,0.204897699773624,0
228,0.1253120321933707,0
229,0.04912437509339597,0
230,0.13262792607314303,0
231,0.23293176401326537,0
232,0.12801517361345954,0
233,0.07623186985478253,0
234,2.591138620984288,0
235,6.977859631254504,0
236,-1.8065309279026656,0
237,0.241421693971415,0
238,0.15391317330645302,0
239,-0.022802975868383583,0
240,0.12493053507076067,0
241,0.007457806273134231,0
242,0.00918358543456502,0
243,0.02134494472262201,0
244,0.03033061330915089,0
245,0.0013897266239586356,0
246,0.07834410336236441,0
247,-0.007343380059156565,0
248,0.1121181658143697,0
249,0.00033997623415272377,0
250,0.4160098043647449,0
251,4.69400706642492,0
252,5.006459072352472,0
253,-3.094234899404229,0
254,1.500434490653357,0
255,-0.74855475543354,0
256,0.26170988025984515,0
257,-0.059566682276693664,0
258,0.10356029356636187,0
259,0.02126784183032273,0
260,-0.0004479386792907191,0
261,0.019758300581459765,0
262,-0.09167692079567062,0
263,0.055958317594708255,0
264,0.047618948095746044,0
265,-0.01694956594856612,0
266,0.021667202519263892,0
267,1.0070926983389659,0
268,6.444516993758799,0
269,1.5174705816236178,0
270,-1.8486526355141304,0
271,1.2294251688045077,0
272,-0.5826016343415785,0
273,0.3253314535384132,0
274,-0.08837431377405272,0
275,0.06011057127113968,0
276,0.037169289360287905,0
277,0.032322745294307134,0
278,-0.004744775473901577,0
279,0.10117035394120874,0
280,0.09542655226717156,0
281,-0.04321804230800286,0
282,0.028573993763674123,0
283,0.031021232659932358,0
284,2.4463404835037172,0
285,6.884886310848286,0
286,-1.8097777163462083,0
287,0.24854292554524327,0
288,0.17066583821559037,0
289,-0.04301823242217945,0
290,-0.02338512277508939,0
291,0.11217822233347859,0
292,0.08458771082707248,0
293,0.03104783645768576,0
294,0.10761367359786556,0
295,-0.09049709334431769,0
296,0.08325441219725702,0
297,0.011070812643344464,0
298,0.029362982546505143,0
299,-0.009756797439982996,0
300,0.3136159167374283,0
301,4.693955400082147,0
302,4.844462630649331,0
303,-3.116063063701909,0
304,1.4457322057231345,0
305,-0.7485804760299799,0
306,0.3845298215253684,0
307,-0.1094072254124012,0
308,0.050425397385042585,0
309,-0.0511838988661278,0
310,0.05795447987535461,0
311,-0.008592867128875671,0
312,0.06815269293487974,0
313,-0.013350731391211804,0
314,-0.018648971336390707,0
315,0.12272493256544664,0
316,-0.060248194712790464,0
317,1.1430093275099618,0
318,6.579480277428766,0
319,1.5375403554780236,0
320,-1.826807892417295,0
321,1.3387703270552318,0
322,-0.4776156123608587,0
323,0.43836661555092826,0
324,-0.10922310703746564,0
325,0.0899363846006896,0
326,0.10506251827072582,0
327,0.08432232680927579,0
328,0.016888508292524602,0
329,0.07359782247458663,0
330,-0.018938738759704324,0
331,0.10917413681850427,0
332,0.01290813712607572,0
333,0.0010699114744607621,0
334,2.616976650552285,0
335,6.851210808141396,0
336,-1.9303503098147021,0
337,0.20904097351922557,0
338,0.1959872867246469,0
339,-0.09453391830210872,0
340,-0.03425110733688717,0
341,-0.023254219460207504,0
342,-0.014610582815442728,0
343,0.10722272661437424,0
344,0.009248905207868521,0
345,0.03067610969932577,0
346,-0.062357746053175074,0
347,0.052307827710669885,0
348,0.04574443745176476,0
349,0.05426569471076025,0
350,0.3746976578723578,0
351,4.706697152869717,0
352,4.833973402512741,0
353,-3.021374392630188,0
354,1.537941564924693,0
355,-0.6649113239701188,0
356,0.1302781518366184,0
357,-0.17450575862041648,0
358,-0.05536249782681486,0
359,-0.03757766276258483,0
360,-0.08549501136708942,0
361,-0.08421330909658638,0
362,-0.05389449524203149,0
363,-0.04877277561344684,0
364,-0.1256664584878375,0
365,-0.09149671598633316,0
366,-0.12054587364411914,0
367,1.0084998416156679,0
368,6.528192282774715,0
369,1.3821044380140504,0
370,-1.931140802717957,0
371,1.1668057599854582,0
372,-0.6195627171601272,0
373,0.18508627992009594,0
374,-0.07694000558498242,0
375,0.02691137832010638,0
376,-0.09893771451955193,0
377,-0.007541327640612895,0
378,-0.05753214016558696,0
379,0.022856028946264074,0
380,0.06366414154207468,0
381,0.018824395484398997,0
382,-0.048896183734661036,0
383,-0.011036259080006189,0
384,2.5829677035921725,0
385,6.790877545200362,0
386,-1.9608712678246554,0
387,0.20729676893859417,0
388,0.08038073192374945,0
389,-0.09607461727422067,0
390,-0.003344256244092635,0
391,-0.0028427599698704134,0
392,-0.0062828214746002975,0
393,-0.09944517970193346,0
394,-0.1535254854386007,0
395,0.0038404180138867233,0
396,-0.07931257968134092,0
397,-0.018503417717502205,0
398,-0.1077952656370335,0
399,-0.10391855386543304,0
400,0.17147490557177697,0
401,4.587337366484848,0
402,4.701910633881506,0
403,-3.0805069171939485,0
404,1.460054155902292,0
405,-0.8243760985088547,0
406,0.22707414878161544,0
407,-0.12134790971229986,0
408,-0.07976044472372439,0
409,-0.042245986520068585,0
410,0.03267028237458809,0
411,-0.05234322466112922,0
412,0.03851963248852341,0
413,-0.04445692566988006,0
414,0.0402971995051728,0
415,0.036468492341634504,0
416,-0.06614623339607906,0
417,1.0358767406469551,0
418,6.483584276155042,0
419,1.347344206237016,0
420,-1.8624479791042856,0
421,1.2426082735871642,0
422,-0.5890576392678436,0
423,0.27519468681581094,0
424,-0.02697961723040386,0
425,0.12036525152899019,0
426,-0.09143563969668037,0
427,-0.033893138302284465,0
428,-0.07502760841087458,0
429,-0.0026081912766656445,0
430,0.03552908962353112,0
431,-0.0554379292998381,0
432,0.00506535308666347,0
433,0.025052389373288436,0
434,2.6544325940821105,0
435,6.712976662344674,0
436,-1.9663271085599163,0
437,0.20966284821287368,0
438,0.017128966659689673,0
439,-0.13713082822024375,0
440,-0.05659376732957317,0
441,-0.08477386831635016,0
442,-0.0958434816774677,0
443,-0.09751997212502408,0
444,-0.07075872742278826,0
445,-0.16740799370097875,0
446,-0.04265915162779957,0
447,-0.11591493801387434,0
448,-0.11006326418225025,0
449,-0.1945077660790825,0
450,0.22166840690841716,0
451,4.587514330440774,0
452,4.658338275730224,0
453,-3.0025389572589387,0
454,1.5010090384411794,0
455,-0.8641740055083986,0
456,0.14527681253585864,0
457,-0.18917464790118993,0
458,-0.10815404504557341,0
459,-0.1451864271488956,0
460,-0.019898331597456624,0
461,-0.09460276583052796,0
462,-0.022006687561080106,0
463,-0.09593345137994516,0
464,0.023430891216063024,0
465,-0.030045546220936963,0
466,-0.11162311405809765,0
467,1.0409648733955885,0
468,6.443122767203891,0
469,1.3481507532348072,0
470,-1.8334454518623513,0
471,1.1426493024184143,0
472,-0.6346725691268689,0
473,0.24869476467405222,0
474,-0.07198972950903995,0
475,-0.03348295497121972,0
476,0.004313126263744332,0
477,-0.01849025245072943,0
478,-0.03522950535806728,0
479,-0.018803549846699227,0
480,-0.01495806985998363,0
481,0.01037432428576356,0
482,0.0252433542659127,0
483,0.011709349213630352,0
484,2.5543098381992997,0
485,6.811810065781441,0
486,-2.004789465510368,0
487,0.32499220848564914,0
488,0.08515001809752629,0
489,-0.004209926039290546,0
490,0.04548908736510557,0
491,-0.07652475569904472,0
492,0.02561000297020713,0
493,0.025158834604328564,0
494,-0.02229700951372402,0
495,-0.13736763359179227,0
496,-0.025706863837255303,0
497,-0.06282835931288798,0
498,-0.1538509640722018,0
499,-0.11354203439189009,0
500,0.16109039112754808,0
501,4.666637526115291,0
502,4.804033445664055,0
503,-3.015933527950153,0
504,1.4960099442051191,0
505,-0.8624881278737117,0
506,0.27660078237991215,0
507,-0.1315564892321887,0
508,-0.06179154668711738,0
509,-0.054211945835427613,0
510,-0.003358892926980578,0
511,0.0020936199016969616,0
512,-0.043891885365939076,0
513,-0.011146427108556494,0
514,-0.021058678335981205,0
515,-0.014209136185059625,0
516,-0.03259251891444846,0
517,1.060596359873267,0
518,6.5196921284183915,0
519,1.285591331909329,0
520,-1.8343218223152395,0
521,1.2236006960890775,0
522,-0.6647931482770413,0
523,0.228289375772153,0
524,-0.09556421613279681,0
525,-0.014350718148942995,0
526,-0.05680350932620717,0
527,-0.04396502742760486,0
528,-0.07136375905635453,0
529,0.07645932564992323,0
530,-0.03786106087327475,0
531,0.023244944378296026,0
532,-0.015001535441365472,0
533,0.05760263203190637,0
534,2.57939208646122,0
535,6.850657340870787,0
536,-2.0849408681192676,0
537,0.32220475262031284,0
538,0.12290973140005879,0
539,-0.10312690224329485,0
540,-0.0466548755857633,0
541,-0.16262086439515253,0
542,-0.006548616806655052,0
543,0.02407715984957736,0
544,-0.015085990976716306,0
545,-0.032404736753140345,0
546,-0.10769018577574593,0
547,-0.026579286980877085,0
548,0.02468597615403021,0
549,-0.08979404037014566,0
550,0.2698594746385647,0
551,4.7404220504347405,0
552,4.81073284849412,0
553,-2.9311077944184625,0
554,1.6449210420781348,0
555,-0.6896362423181995,0
556,0.3378392300006558,0
557,-0.2093094287863116,0
558,0.13726050753535235,0
559,0.01636275581390761,0
560,0.039642817889026793,0
561,-0.07251920045647949,0
562,-0.06058271767839875,0
563,0.007273753368075174,0
564,0.025501393285337688,0
565,0.013262800525336259,0
566,-0.011244587664642558,0
567,1.1053957675560242,0
568,6.608770598676992,0
569,1.254383548136582,0
570,-1.94769803585201,0
571,1.1212660794539973,0
572,-0.668933996285133,0
573,0.22739381323723526,0
574,-0.07120622608049582,0
575,-0.00011045675176404521,0
576,-0.010725109407015307,0
577,-0.028208318764147818,0
578,0.005671442983107922,0
579,0.02956501088408982,0
580,0.044717118488564744,0
581,-0.011874669092496355,0
582,-0.04763454240374123,0
583,0.16280785860796249,0
584,2.605694977484029,0
585,6.844945074371556,0
586,-2.0183554985183227,0
587,0.2807869562677415,0
588,-0.0200155003915361,0
589,-0.07430711859568481,0
590,-0.06287580426734943,0
591,-0.01942339441694289,0
592,-0.01620173685279415,0
593,-0.11200909631305608,0
594,-0.05092260362278761,0
595,-0.09848333913903182,0
596,-0.020332791725733067,0
597,0.027080387709718226,0
598,0.025465101144958584,0
599,-0.06531796895281908,0
600,0.28337100738845394,0
601,4.661610481113723,0
602,4.629501454726358,0
603,-3.0783429122273436,0
604,1.5060418282432322,0
605,-0.8299750191179883,0
606,0.28710310170415493,0
607,-0.14320870614699524,0
608,-0.06771144286621991,0
609,-0.05070327728426889,0
610,-0.08459199500904833,0
611,-0.029113095049167405,0
612,0.003673113292577329,0
613,-0.03168623833240395,0
614,-0.0659415596164232,0
615,-0.03417410968121023,0
616,-0.026782133730571086,0
617,1.0113241708316763,0
618,6.595135553182847,0
619,1.3264044712838532,0
620,-1.8815030694126265,0
621,1.08274105109023,0
622,-0.7077361762452412,0
623,0.14948072515573485,0
624,-0.1640029724256197,0
625,-0.05701934022174887,0
626,-0.028254476334639768,0
627,-0.045775163928461864,0
628,-0.08741224154067959,0
629,-0.08024184341481516,0
630,-0.15920958990660522,0
631,-0.05605662015535444,0
632,-0.008218461831380294,0
633,-0.0016947942322477205,0
634,2.664351963620387,0
635,6.883971121320069,0
636,-1.979875382160251,0
637,0.297454886705315,0
638,0.07095882867848445,0
639,-0.15036927460901245,0
640,0.018430118282573262,0
641,-0.03395375857268513,0
642,-0.08866596059823778,0
643,0.020410667645238738,0
644,0.058213640390351096,0
645,0.06359880324249668,0
646,0.0011655701721249925,0
647,-0.06945727892141318,0
648,-0.01644776920277386,0
649,0.056522293903834245,0
650,0.3841817826940762,0
651,4.832986089590438,0
652,4.8025916406569875,0
653,-2.9627425652316903,0
654,1.5790425748987291,0
655,-0.699845295253222,0
656,0.2693916810481075,0
657,-0.08552611101299731,0
658,0.06046494490616091,0
659,0.040060927969650315,0
660,0.007125358443337521,0
661,-0.03676594102607622,0
662,0.008197678333047232,0
663,0.0497494436749808,0
664,-0.08161549842950634,0
665,-0.010819520536486587,0
666,0.015885494991549506,0
667,1.0957549939381888,0
668,6.579734558739271,0
669,1.3070902731615754,0
670,-1.7523795485258258,0
671,1.205405103359016,0
672,-0.6316336431046529,0
673,0.2582535388347134,0
674,-0.12540950449229984,0
675,0.015422281097788856,0
676,0.017649587519805558,0
677,-0.03181790095286559,0
678,0.012084680769318339,0
679,-0.04683065109295001,0
680,0.10736232310915529,0
681,0.046094862777178676,0
682,0.012177313695122271,0
683,0.047790963185367054,0
684,2.6976873536420465,0
685,6.87427229956769,0
686,-2.031883144093158,0
687,0.41001049632505127,0
688,0.17872474335728286,0
689,-0.0016193968666622718,0
690,0.08921561842640616,0
691,0.11540680083697519,0
692,0.10246137936083263,0
693,0.22966072019084166,0
694,0.06766274929389032,0
695,0.08189701822734105,0
696,0.03484243781084343,0
697,0.049729021670595175,0
698,-0.015456346790026936,0
699,-0.035675805427833523,0
700,0.3310658393685889,0
701,4.705268446164595,0
702,4.808749001849162,0
703,-2.9569351955361007,0
704,1.5162797270479693,0
705,-0.6871481112831573,0
706,0.36948758836191115,0
707,-0.08676940472160193,0
708,0.07327357048507724,0
709,0.03791073743347732,0
710,0.055515297298107155,0
711,0.11889456504485732,0
712,0.0640447675329006,0
713,0.10636753024292543,0
714,0.005096680883259458,0
715,-0.027154204711856707,0
716,-0.01660892935691656,0
717,1.2198626706419005,0
718,6.551073808405034,0
719,1.2117012966133536,0
720,-1.690770522547555,0
721,1.1595525470353039,0
722,-0.5083719027195907,0
723,0.3354098652871545,0
724,-0.04768941002361492,0
725,-0.007276649335968791,0
726,0.14590363254543537,0
727,-0.03783045173549589,0
728,0.012561141084551336,0
729,0.08419253051873016,0
730,0.12584173936571397,0
731,0.07960971100767136,0
732,-0.004910248163488236,0
733,0.0759738724551011,0
734,2.6981572352831598,0
735,6.765959622627019,0
736,-2.0159947714591686,0
737,0.4350725176206126,0
738,0.14298860703810423,0
739,-0.0012743441759657595,0
740,0.06636970731787259,0
741,-0.004974724524462307,0
742,-0.02985700214429027,0
743,0.05076274336365945,0
744,-0.006816246030474702,0
745,-0.027351178861933473,0
746,-0.04679845106611792,0
747,0.01709376803072727,0
748,0.04711520509335489,0
749,0.05096136052346475,0
750,0.3586415364324272,0
751,4.827720922602233,0
752,4.833656569729193,0
753,-2.9267770531891233,0
754,1.6358771907308278,0
755,-0.6932222623942202,0
756,0.3156180176387161,0
757,-0.030580582579890613,0
758,0.05368416867957748,0
759,0.014365975072060284,0
760,0.04046586992644386,0
761,0.15676849494610967,0
762,0.04246901807483567,0
763,0.07912883883604722,0
764,0.08155238701746036,0
765,0.07752781382728023,0
766,0.1084510911932891,0
767,1.1141030214150685,0
768,6.540603651897551,0
769,1.263057669632275,0
770,-1.8024668841325155,0
771,1.2512303917493988,0
772,-0.48199151425703557,0
773,0.20842414605390386,0
774,-0.013786950651073895,0
775,0.02509807774061358,0
776,-0.0450108168586768,0
777,0.045212454475910845,0
778,0.003754242585397128,0
779,-0.04618237488674846,0
780,0.07248712441587382,0
781,-0.10902965142312862,0
782,-0.06402478789588195,0
783,-0.03910556935654953,0
784,2.725781019510583,0
785,6.806444451626966,0
786,-2.0520479158581426,0
787,0.33155640992319024,0
788,0.008946015835641391,0
789,-0.0032249914201864724,0
790,0.05998865344439378,0
791,-0.014093922456582912,0
792,0.09471402677856576,0
793,-0.01779310357889114,0
794,0.04771606047576731,0
795,0.08559034499166343,0
796,-0.0044346676179090275,0
797,-0.050249860150415736,0
798,-0.06645106377043061,0
799,-0.000516757582324015,0
800,0.29606308438288315,0
801,4.7962706385137475,0
802,4.700172079623125,0
803,-3.0393832084803285,0
804,1.556591975134962,0
805,-0.7026286774837618,0
806,0.32838687756649226,0
807,-0.050744122084916646,0
808,0.04552696532227423,0
809,0.03801878061623541,0
810,-0.0519486057790093,0
811,0.010019930762729706,0
812,-0.046596297066206195,0
813,-0.001669202090322057,0
814,-0.004665352503632944,0
815,0.055155196939654365,0
816,0.03229031819317519,0
817,1.1261968066729247,0
818,6.562304190370826,0
819,1.1668674940074502,0
820,-1.7015658655259267,0
821,1.1380001521906005,0
822,-0.6550417658509345,0
823,0.20438830249893827,0
824,-0.10458294132958054,0
825,0.04389756957030652,0
826,-0.030119193508445677,0
827,0.059429124499787066,0
828,-0.06261785920538583,0
829,0.05772594722391679,0
830,0.06772692187661311,0
831,0.020052749374345844,0
832,9.355863817839521e-05,0
833,0.09343714938610852,0
834,2.777751301403629,0
835,6.723430217665059,0
836,-1.969985910231296,0
837,0.3714646554196097,0
838,0.0798730343588164,0
839,0.012767153105353458,0
840,0.02059762269825401,0
841,-0.0137384120518322,0
842,0.028576826616761437,0
843,-0.06914989776076405,0
844,-0.020237240935971554,0
845,0.015614632106247806,0
846,-0.003018702615171981,0
847,0.05611459291655651,0
848,-0.02652966803399181,0
849,-0.07820294299453034,0
850,0.26898283998399874,0
851,4.747597736499215,0
852,4.619814192819378,0
853,-3.0722281709772075,0
854,1.563623085672423,0
855,-0.7809939303868618,0
856,0.36255096081682514,0
857,-0.1936158561679493,0
858,-0.03933892263815491,0
859,-0.09919752797952647,0
860,-0.012245326375716348,0
861,-0.08087120257100998,0
862,-0.05050023555032831,0
863,-0.040585436553843945,0
864,-0.07101786945362303,0
865,-0.021490212212242912,0
866,-0.11126490567402425,0
867,1.0049715808568003,0
868,6.411968617339525,0
869,1.013445270126925,0
870,-1.8167858731875008,0
871,1.0266642719228454,0
872,-0.7543055338709911,0
873,0.23207861857143208,0
874,-0.22465198642231218,0
875,-0.06636425134293605,0
876,-0.16241636394980827,0
877,-0.08232443129564408,0
878,-0.06951096112446514,0
879,-0.07446734860734232,0
880,-0.04976020916342068,0
881,-0.028105467425299867,0
882,-0.15400077979551324,0
883,0.07144841332292444,0
884,2.727094942842029,0
885,6.752086324792572,0
886,-2.15596293200219,0
887,0.24131922256581684,0
888,-0.004224456531141188,0
889,-0.08312574123362959,0
890,-0.08542665334967306,0
891,-0.20560675386480998,0
892,-0.12576734753180943,0
893,0.004351971299422899,0
894,-0.1717475081449084,0
895,-0.16015351849204046,0
896,-0.14324092384699993,0
897,-0.0615886593959315,0
898,-0.11821281521283379,0
899,-0.12208301105429543,0
900,0.25211832179638666,0
901,4.776968479759698,0
902,4.533761138984241,0
903,-3.141184381181491,0
904,1.4646951025172004,0
905,-0.8131838855363592,0
906,0.21875152239971415,0
907,-0.10498662722485258,0
908,-0.09187322378276375,0
909,-0.11438684546685701,0
910,0.022864283518234066,0
911,-0.10374491156682704,0
912,-0.06745075952314199,0
913,-0.0957000133984412,0
914,-0.018834493105401612,0
915,-0.019369094439495686,0
916,0.05615937552698198,0
917,1.0873652450606097,0
918,6.4797424552248355,0
919,0.9913018833568723,0
920,-1.7233520056969793,0
921,1.061033739783086,0
922,-0.7203379656050789,0
923,0.2391825280670709,0
924,-0.12602855926316076,0
925,-0.02971449736739786,0
926,-0.0660152565717875,0
927,-0.07183399372950404,0
928,0.05247518818682964,0
929,0.04920133526026045,0
930,0.0002447763878385273,0
931,-0.05159664610095575,0
932,-0.0525384696801374,0
933,0.005056219999683606,0
934,2.693314013636767,0
935,6.756281048448899,0
936,-2.0997815929841477,0
937,0.3422566238798336,0
938,-0.060919812609014294,0
939,-0.07303811040880935,0
940,-0.10094150261735257,0
941,-0.039248832475994665,0
942,-0.06426584303546552,0
943,0.035798461521711906,0
944,-0.02860761790899556,0
945,-0.06961381619653598,0
946,-0.08476172363987453,0
947,0.0057039280699372474,0
948,-0.020324297553713302,0
949,-0.02504116035171419,0
950,0.34508226399204034,0
951,4.851100199318646,0
952,4.6591453644052745,0
953,-2.951190357785937,0
954,1.546667008079981,0
955,-0.7471230587757548,0
956,0.2458686505919171,0
957,-0.1287499881666717,0
958,-0.06747158006091103,0
959,0.03399081304145528,0
960,0.050092842493012504,0
961,0.011385247851193794,0
962,-0.02573086903564791,0
963,-0.024316638152484436,0
964,-0.05738355122445418,0
965,-0.007493347085514919,0
966,-0.004369829098863912,0
967,1.0790019940435096,0
968,6.603266363362607,0
969,1.0778348866516916,0
970,-1.7222112900146793,0
971,1.0799638690966107,0
972,-0.5564365187766916,0
973,0.29119449857798985,0
974,-0.1635889075572256,0
975,0.005837096787444365,0
976,-0.07543591022576566,0
977,-0.08097296119092783,0
978,0.1290459763607994,0
979,0.0703890730214256,0
980,-0.07582240405584624,0
981,0.10859450843044195,0
982,0.004210987572983445,0
983,0.05463792215792871,0
984,2.6462835253105266,0
985,6.763952943475656,0
986,-2.1412369509446623,0
987,0.4676960837872167,0
988,-0.05851243915451036,0
989,-0.13765234051376907,0
990,-0.017501474683359716,0
991,-0.03923970744859187,0
992,-0.014677307737305797,0
993,-0.13258673447959876,0
994,0.029430575337979728,0
995,-0.052927435721546394,0
996,-0.05312230351501787,0
997,-0.012190065852319534,0
998,-0.028769341269277035,0
999,-0.00299179029653061,0
1000,0.2037784466090748,0
1001,4.751485359309362,0
1002,4.547368677070133,0
1003,-2.914967933333046,0
1004,1.593009128357414,0
1005,-0.758101002582115,0
1006,0.34277967429486234,0
1007,-0.06310186379405636,0
1008,0.10363147885054116,0
1009,0.06820039302690023,0
1010,0.007987120710856353,0
1011,0.03933064206427186,0
1012,-0.04431251842774289,0
1013,0.06254526094550802,0
1014,-0.002698811213749163,0
1015,-0.007067903984860145,0
1016,-0.039634177960238326,0
1017,1.1142765787389362,0
1018,6.595054901163948,0
1019,1.1067243758577334,0
1020,-1.7302535717284915,0
1021,1.1709588666434834,0
1022,-0.6306937636470614,0
1023,0.19838408842920136,0
1024,-0.036345815912080505,0
1025,0.03450619189918236,0
1026,-0.07606268772394031,0
1027,0.04146436448292344,0
1028,0.011917079991153014,0
1029,0.015324566444489814,0
1030,-0.06751448175564197,0
1031,-0.07801087986468654,0
1032,0.12971032781603792,0
1033,0.03565014085494591,0
1034,2.746310578557862,0
1035,6.8006245900713065,0
1036,-2.1525125251395933,0
1037,0.45513694638591073,0
1038,-0.0005916677234133992,0
1039,-0.05245632967265838,0
1040,0.003534443958423873,0
1041,-0.026130400215409758,0
1042,-0.061191192292039884,0
1043,-0.048734593108962956,0
1044,-0.055831709633818546,0
1045,-0.014835520780325587,0
1046,0.06851247698110262,0
1047,-0.09199881477698488,0
1048,0.13054221708135566,0
1049,-0.0048664514991580456,0
1050,0.4017299515284771,0
1051,4.9723347134292455,0
1052,4.582889833872109,0
1053,-2.954016156316197,0
1054,1.6289651588634193,0
1055,-0.7423916275286859,0
1056,0.40139020549643667,0
1057,0.07574711418983607,0
1058,0.1062286683724161,0
1059,0.07122127244828959,0
1060,-0.025638184221206464,0
1061,0.09995929945880845,0
1062,0.08849670351488659,0
1063,0.03161160360736044,0
1064,0.07118872248081165,0
1065,0.014024310690629503,0
1066,-0.005679948315439401,0
1067,1.1372743092159041,0
1068,6.6520619792045865,0
1069,1.0199963412870867,0
1070,-1.7090291596744611,0
1071,1.1826390944433522,0
1072,-0.6052884270040941,0
1073,0.3429715287563202,0
1074,-0.12114478483243724,0
1075,-0.01869707173597901,0
1076,0.018543099518720994,0
1077,0.1012593650589945,0
1078,0.09929687900164307,0
1079,0.10434911843468453,0
1080,0.07824650869494362,0
1081,0.03865101149942139,0
1082,0.14513309376677513,0
1083,0.13277809370608204,0
1084,2.9196818264011717,0
1085,6.874766024265188,0
1086,-2.115284832909759,0
1087,0.5300233720529091,0
1088,0.11451713176573841,0
1089,0.051199643676029444,0
1090,0.04428495362435926,0
1091,0.08327449954131039,0
1092,0.0038461829648842732,0
1093,0.02081692225979152,0
1094,0.05210179184535483,0
1095,-0.01336508503393408,0
1096,-0.02865182870596065,0
1097,-0.008374667208307224,0
1098,-0.06114389421416816,0
1099,0.03267665003204495,0
1100,0.2801636554285849,0
1101,4.88486207742995,0
1102,4.592680140521389,0
1103,-3.014236793504457,0
1104,1.606220510965538,0
1105,-0.7034848795228898,0
1106,0.31072589187819416,0
1107,-0.07307795415930823,0
1108,0.0529473768225441,0
1109,0.020283638810296968,0
1110,0.012147124385031492,0
1111,-0.031640950432827775,0
1112,-0.040746477559452265,0
1113,0.11526732173807264,0
1114,0.08471511552754432,0
1115,0.01630874841507656,0
1116,0.09404486753501155,0
1117,1.141718463328681,0
1118,6.659193737644422,0
1119,1.0179726658720014,0
1120,-1.6438922173930512,0
1121,1.1508698185861235,0
1122,-0.5580624956202812,0
1123,0.20974909574617057,0
1124,-0.04225473188621087,0
1125,-0.00013815333351618192,0
1126,0.060067683215928154,0
1127,0.05604513161631905,0
1128,0.10985328762025079,0
1129,-0.058035935238521366,0
1130,0.069080288025056,0
1131,0.024879526313330343,0
1132,-0.0034365420112380217,0
1133,0.1124491335770157,0
1134,2.7931440125881344,0
1135,6.793936970808585,0
1136,-2.0707689766520274,0
1137,0.5910254717155637,0
1138,0.015466644938211309,0
1139,0.059116150283493756,0
1140,0.08872050098247758,0
1141,0.08290547492863817,0
1142,0.019353692541067384,0
1143,0.07435906395975397,0
1144,0.1373514428898211,0
1145,0.1017449322573799,0
1146,0.032132656367602055,0
1147,0.14670632890766205,0
1148,0.05826261272937059,0
1149,-0.06024331981334986,0
1150,0.4012441969636119,0
1151,4.922862946573871,0
1152,4.481055137533762,0
1153,-2.923555679310516,0
1154,1.6133352048379765,0
1155,-0.7684059392190832,0
1156,0.425688416698006,0
1157,-0.10677461928700283,0
1158,0.15394600574507217,0
1159,0.06529188329655936,0
1160,0.03767906664354352,0
1161,0.03417806328866249,0
1162,0.12425381242966219,0
1163,0.05950293258057552,0
1164,0.12383584286327179,0
1165,0.012067394114275522,0
1166,-0.025327198795836496,0
1167,1.244019549425326,0
1168,6.67637122110518,0
1169,1.136569277631225,0
1170,-1.6521364466585853,0
1171,1.1765856249844369,0
1172,-0.45372458663236426,0
1173,0.23525210727879542,0
1174,-0.06546460974166975,0
1175,0.06472379613685293,0
1176,-0.020261818865859496,0
1177,0.041267582288209,0
1178,0.07319776039371292,0
1179,0.06363905640972935,0
1180,0.05103888379864026,0
1181,0.09239543088271823,0
1182,0.13056236573388313,0
1183,0.19557706584311527,0
1184,2.8482033658320742,0
1185,6.758423736227247,0
1186,-2.045308235037736,0
1187,0.5641767600939559,0
1188,0.13504968886736934,0
1189,0.07950953333123592,0
1190,0.1415751176016606,0
1191,0.11868224226943103,0
1192,0.0969604812782683,0
1193,0.023904180123471452,0
1194,0.1202156031880035,0
1195,0.1532933722800755,0
1196,0.14678202219358089,0
1197,0.09141437274586475,0
1198,0.1558142276572368,0
1199,0.116842271098231,0
1200,0.4721915578122445,0
1201,5.031014376931996,0
1202,4.541621886939137,0
1203,-2.946862161883383,0
1204,1.5411357112623758,0
1205,-0.7007043925978859,0
1206,0.4138400297008076,0
1207,0.037901907999040446,0
1208,0.10843245737146141,0
1209,0.03666185904068614,0
1210,0.09946686471444881,0
1211,0.07450860277377891,0
1212,0.06511305123477829,0
1213,0.08440651329107762,0
1214,0.06293767810661817,0
1215,0.07902032801104837,0
1216,0.06561804449530872,0
1217,1.3825808828253359,0
1218,6.670515461805312,0
1219,1.0287514640649718,0
1220,-1.563405498333089,0
1221,1.203189596778988,0
1222,-0.41829149484975914,0
1223,0.2755265383967821,0
1224,0.015243946017503035,0
1225,0.11023194367850483,0
1226,0.10490077857007904,0
1227,0.0027362294265977777,0
1228,0.08432740766528304,0
1229,0.031246949245914868,0
1230,0.0339183933923263,0
1231,0.10625482139148609,0
1232,0.0802376708539199,0
1233,0.12068583260124044,0
1234,2.9186914090137135,0
1235,6.750571279946238,0
1236,-2.1396568627169663,0
1237,0.5486018610054428,0
1238,-0.013567120916560683,0
1239,0.027133793813810547,0
1240,-0.021747479671350177,0
1241,0.017539102740607895,0
1242,0.05999047234847494,0
1243,-0.005971300428630845,0
1244,0.05478234559640385,0
1245,0.07142601519361975,0
1246,0.023322892586914737,0
1247,0.06617898359680516,0
1248,0.0345151521718426,0
1249,0.13158432162840164,0
1250,0.39940295803422915,0
1251,5.017611609394917,0
1252,4.487173435500332,0
1253,-2.9651041914987806,0
1254,1.6303712312021457,0
1255,-0.7721758478169339,0
1256,0.3967472190254862,0
1257,-0.11587864580320686,0
1258,-0.004852287946164421,0
1259,0.03391478968558378,0
1260,-0.07303435769532188,0
1261,0.004297293193467437,0
1262,0.0040254411437349105,0
1263,0.08619400598067714,0
1264,0.13415808445021699,0
1265,0.14404922673538897,0
1266,0.0817519928020333,0
1267,1.176185591682175,0
1268,6.618645127429366,0
1269,0.9803562752271986,0
1270,-1.6395961002327595,0
1271,1.2777902777260808,0
1272,-0.5140401310004725,0
1273,0.36314123364279205,0
1274,0.011692558753601957,0
1275,0.0036780590762389986,0
1276,0.08478260092757504,0
1277,-0.02580284449777097,0
1278,0.11202039730228464,0
1279,-0.03644738153124973,0
1280,0.11283117858213526,0
1281,-0.047052156970392306,0
1282,0.052432022992123004,0
1283,0.15727099131302477,0
1284,2.8327163201963734,0
1285,6.721226548627257,0
1286,-2.2039511155980676,0
1287,0.5401336472763608,0
1288,-0.015374657257502169,0
1289,-0.08356616305608475,0
1290,0.04762927909049672,0
1291,-0.03150280163653318,0
1292,0.06382679042960283,0
1293,-0.051673553173046255,0
1294,-0.02561214522829229,0
1295,-0.014619974348640262,0
1296,0.030982412898636062,0
1297,-0.04123626707167334,0
1298,-0.01025735355303756,0
1299,0.0034165250282059533,0
1300,0.3425130067709553,0
1301,4.956004336510817,0
1302,4.549852996269629,0
1303,-2.9065835368818687,0
1304,1.7089377722639763,0
1305,-0.8265980115137902,0
1306,0.316293854450921,0
1307,-0.08822511853319015,0
1308,0.01279303120746611,0
1309,0.02645268766255973,0
1310,-0.017079422699954695,0
1311,0.033993862421067216,0
1312,0.08599330903916105,0
1313,-0.13367918028248119,0
1314,0.014327865063813248,0
1315,-0.07033356437909097,0
1316,0.009565591100332973,0
1317,1.3161517057610992,0
1318,6.636648482918778,0
1319,0.9036530961104208,0
1320,-1.6228845096865239,0
1321,1.0555733995524839,0
1322,-0.5474015803118969,0
1323,0.24575978568423248,0
1324,-0.12658816660106376,0
1325,0.0030844245560661537,0
1326,0.005491560968134131,0
1327,-0.014697030436523968,0
1328,0.040776429136576364,0
1329,0.041673421932409846,0
1330,0.07337184627253228,0
1331,-0.03231593926887236,0
1332,0.03593895999356007,0
1333,0.12636204949548424,0
1334,2.8804572713377534,0
1335,6.7121905268718,0
1336,-2.153501656139425,0
1337,0.5619955105460638,0
1338,-0.03314605889903428,0
1339,0.03236554644014843,0
1340,0.04082314199570564,0
1341,0.0044555690178272635,0
1342,0.0035246684802785035,0
1343,0.031891977005487106,0
1344,0.05877226141786134,0
1345,-0.0310088559419252,0
1346,0.0004341977181593522,0
1347,0.08493717558485475,0
1348,0.06401280579146171,0
1349,-0.03036613175524601,0
1350,0.2522413315223312,0
1351,4.911612727044732,0
1352,4.537915985349691,0
1353,-3.04942472336825,0
1354,1.5996988858612597,0
1355,-0.7294828948180924,0
1356,0.3253238032593365,0
1357,-0.09268462064818589,0
1358,-0.006055062568698061,0
1359,-0.06269155773354652,0
1360,-0.031425567401956296,0
1361,0.051349203460481926,0
1362,0.03746001429107931,0
1363,0.023309089170765296,0
1364,0.028902937459978843,0
1365,0.01663269153569167,0
1366,-0.06331679811266135,0
1367,1.200386374159413,0
1368,6.718417893906607,0
1369,0.8748576609585295,0
1370,-1.6894512820411796,0
1371,1.171967766115055,0
1372,-0.613360056163765,0
1373,0.1131098476549367,0
1374,-0.1422206454087462,0
1375,0.0387585493059813,0
1376,-0.07483151320436388,0
1377,0.009593098596218076,0
1378,0.005100522226478979,0
1379,-0.009635553100835746,0
1380,0.03551923200713124,0
1381,-0.0214780388604576,0
1382,-0.025162616856456342,0
1383,0.0009526910372559746,0
1384,2.815572650590436,0
1385,6.737004362475361,0
1386,-2.297381451245465,0
1387,0.5625300603818312,0
1388,-0.0908694923876604,0
1389,0.02888956266811399,0
1390,0.03197775063008834,0
1391,-0.027022106680042637,0
1392,-0.03918262364084379,0
1393,-0.0007949909343629644,0
1394,0.00280776343114964,0
1395,-0.03095053126122283,0
1396,0.013332559398669685,0
1397,-0.021207790201783525,0
1398,-0.04301836664295877,0
1399,-0.012181896108506708,0
1400,0.2871528299207526,0
1401,5.026254793194821,0
1402,4.48618390911511,0
1403,-2.9609578012006423,0
1404,1.5816240278745977,0
1405,-0.7541327757756207,0
1406,0.341069834342338,0
1407,-0.06651251098833513,0
1408,-0.05883976776061133,0
1409,-0.04795477132183652,0
1410,0.11551548474607944,0
1411,-0.06477367993576436,0
1412,0.018308316417031564,0
1413,0.013108842152076609,0
1414,0.037224874574268374,0
1415,-0.10041149067983027,0
1416,-0.03493975042239075,0
1417,1.1967608847841513,0
1418,6.627454847532669,0
1419,0.7976000232217915,0
1420,-1.6511372406673497,0
1421,1.0259417747264021,0
1422,-0.595210212568642,0
1423,0.23161696436084656,0
1424,-0.10294072840503973,0
1425,0.009306092205836215,0
1426,-0.06189855521726899,0
1427,-0.0711792860994319,0
1428,-0.021242771344284796,0
1429,0.015087849399293583,0
1430,0.05646684835348096,0
1431,-0.00036731313260633756,0
1432,-0.03313370951531372,0
1433,0.1091649415188913,0
1434,2.8254758847421546,0
1435,6.70864061545968,0
1436,-2.2324147869145805,0
1437,0.4897810566971429,0
1438,0.04566469470538363,0
1439,-0.013481129534222336,0
1440,-0.06408715982867964,0
1441,-0.03592779960892382,0
1442,0.02548276001565958,0
1443,-0.06499944034364777,0
1444,0.05003855449233385,0
1445,0.041910060895915646,0
1446,-0.047854461949540385,0
1447,0.05462312256205326,0
1448,-0.020399956289371586,0
1449,-0.05954111499819932,0
1450,0.4484006523104208,0
1451,5.10509232225904,0
1452,4.494902553499876,0
1453,-2.906095652591213,0
1454,1.574797396948093,0
1455,-0.8352646001753904,0
1456,0.34532538580508443,0
1457,-0.15867351423866588,0
1458,-0.03335195082018147,0
1459,-0.037761308985782505,0
1460,-0.05474164401050865,0
1461,-0.11981662840182823,0
1462,-0.07794730066892233,0
1463,-0.07938639120805698,0
1464,-0.11674227042806737,0
1465,-0.05502359225435904,0
1466,-0.019950372031160915,0
1467,1.1561400771344874,0
1468,6.643207050324075,0
1469,0.978636165101607,0
1470,-1.5594030669073704,0
1471,0.9875401670513594,0
1472,-0.5399416505943053,0
1473,0.26915449493797594,0
1474,-0.01056488982095484,0
1475,0.05099729194356073,0
1476,-0.030466476358391347,0
1477,0.02246887845803552,0
1478,0.03321272679639105,0
1479,-0.05004215742572367,0
1480,0.040316615875920045,0
1481,0.004901479725266681,0
1482,-0.054513931603031494,0
1483,0.05837538294394865,0
1484,2.8662641718645445,0
1485,6.7084735287832675,0
1486,-2.2508358444492877,0
1487,0.4714115408144353,0
1488,0.027408246207576342,0
1489,0.05137914149620348,0
1490,0.002705004831607686,0
1491,-0.006759740586086087,0
1492,-0.004501168132164789,0
1493,-0.004054742614679335,0
1494,-0.03250614182147771,0
1495,0.04948098863029824,0
1496,0.022195880731707376,0
1497,-0.0775354995644217,0
1498,-0.04206211629379219,0
1499,0.002288955655262114,0
1500,0.4224202550097635,0
1501,4.957435902995817,0
1502,4.405038018128296,0
1503,-2.8842010536102514,0
1504,1.6111019164598088,0
1505,-0.7761109154529566,0
1506,0.2826731963593227,0
1507,-0.18255848276347275,0
1508,-0.01755066181517876,0
1509,-0.012254982691024714,0
1510,0.05475509337152242,0
1511,-0.02161872873300605,0
1512,-0.0031803282606252675,0
1513,0.049010069671394214,0
1514,0.05072583792699135,0
1515,-0.07630207407685122,0
1516,0.02658935509838304,0
1517,1.3292040996234142,0
1518,6.722908547773397,0
1519,0.9198054592608044,0
1520,-1.450190594109161,0
1521,1.129798656611317,0
1522,-0.4121707125233691,0
1523,0.3112030520531596,0
1524,0.030540932877876882,0
1525,0.13821796029863137,0
1526,0.010112854723168939,0
1527,0.056489078792134786,0
1528,0.020713100732398196,0
1529,-0.06683718187653366,0
1530,0.05795014262754407,0
1531,0.05140132026710812,0
1532,-0.03999127908272637,0
1533,0.10567176046607549,0
1534,2.8925300164952317,0
1535,6.720040430675797,0
1536,-2.20188682678307,0
1537,0.6208117966728188,0
1538,-0.07578985886522022,0
1539,0.12213140495035682,0
1540,0.09591672051824586,0
1541,0.10817853650173789,0
1542,-0.044764543373209564,0
1543,0.006962764201976723,0
1544,0.048507419926552546,0
1545,-0.011742859005388524,0
1546,0.047781523330782866,0
1547,0.02820257755131863,0
1548,0.06938477648151303,0
1549,-0.04103656324746777,0
1550,0.43534835585429416,0
1551,4.967818556093577,0
1552,4.330765997430506,0
1553,-2.9794866741589883,0
1554,1.5457449669301915,0
1555,-0.7403471292420762,0
1556,0.2719980173364569,0
1557,-0.06921357761676439,0
1558,-0.04524851443708456,0
1559,0.01624714411983045,0
1560,-0.02288374203374659,0
1561,-0.04631393888497745,0
1562,-0.051808182458225376,0
1563,0.0006685676081254486,0
1564,-0.007914712657952008,0
1565,0.03269090453359552,0
1566,0.05265246165047993,0
1567,1.261743642783928,0
1568,6.689671949794085,0
1569,0.7717107685047834,0
1570,-1.444809457187387,0
1571,1.0718955480555663,0
1572,-0.4992361310920088,0
1573,0.2630123739768943,0
1574,0.11383850844996427,0
1575,0.047594747541365195,0
1576,-0.040856796439945005,0
1577,-0.05417079052490447,0
1578,0.044672443984292834,0
1579,-0.0481598845066434,0
1580,0.00894685199975153,0
1581,0.030890388709343665,0
1582,0.08162176172876835,0
1583,0.0022401623929705072,0
1584,2.940220250608856,0
1585,6.655883805741929,0
1586,-2.27020686693562,0
1587,0.5344899479405408,0
1588,-0.007329613017349801,0
1589,0.0208116789194523,0
1590,0.003151928566353739,0
1591,-0.034326423473093205,0
1592,0.04505831394697867,0
1593,-0.04348191261477767,0
1594,-0.004015683265980426,0
1595,0.01518131336192179,0
1596,-0.015751975948311504,0
1597,0.039063242651342346,0
1598,-0.08912940629662326,0
1599,-0.05536650809576753,0
1600,0.3397476991287804,0
1601,5.040283935659902,0
1602,4.4068053098005695,0
1603,-2.8486912977547107,0
1604,1.6302943084325234,0
1605,-0.7553680790372737,0
1606,0.29452790404641227,0
1607,-0.10219793724048057,0
1608,-0.07360072241309089,0
1609,0.02082418381677481,0
1610,0.029454416787966585,0
1611,-0.15491547985808457,0
1612,-0.08455817251516332,0
1613,-0.038218602639781246,0
1614,-0.06299317903286047,0
1615,-0.0633559847601359,0
1616,-0.02618626847869547,0
1617,1.2351250750696972,0
1618,6.692197785581881,0
1619,0.7354231545364242,0
1620,-1.5197381654886146,0
1621,0.9881190797122679,0
1622,-0.5826175042367826,0
1623,0.23412671604672267,0
1624,-0.10649581509944411,0
1625,0.016648828665343278,0
1626,-0.013354595453275109,0
1627,-1.429713940825049e-05,0
1628,0.04438365883601218,0
1629,-0.011836970264690262,0
1630,-0.06491506010535635,0
1631,0.0446733376798516,0
1632,-0.04153908781842877,0
1633,0.006444940630114398,0
1634,2.9238163511557853,0
1635,6.651864569617234,0
1636,-2.329784146663225,0
1637,0.5571506824269367,0
1638,-0.09094216381818708,0
1639,-0.08259833258166145,0
1640,-0.06427967205664509,0
1641,-0.015820344528261247,0
1642,-0.052233315161193096,0
1643,-0.1315534308540328,0
1644,-0.03820429141690081,0
1645,-0.06731296187544676,0
1646,-0.09551855835130243,0
1647,0.05726624462836202,0
1648,-0.05205726077243316,0
1649,-0.08847529501580854,0
1650,0.3005984421336141,0
1651,5.132919588249215,0
1652,4.303953997051618,0
1653,-2.919869654180656,0
1654,1.515588281791606,0
1655,-0.8092844272524412,0
1656,0.228910347984932,0
1657,-0.08057408314676365,0
1658,0.06603323514362958,0
1659,-0.06937204775056734,0
1660,0.022755298382778823,0
1661,-0.04602324239538788,0
1662,-0.052456749385205934,0
1663,0.0072706971239078055,0
1664,0.0019962401881196672,0
1665,-0.06868204090922936,0
1666,-0.043497076534452644,0
1667,1.3171152496709173,0
1668,6.646967950322295,0
1669,0.8323166543912708,0
1670,-1.426908276293296,0
1671,1.1190806514267537,0
1672,-0.4973815406594772,0
1673,0.26088391931863675,0
1674,0.08212159895624499,0
1675,0.11846986371743917,0
1676,0.11511420441545009,0
1677,0.07351325535440438,0
1678,0.09478822621379443,0
1679,0.07880784528762949,0
1680,-0.023517520047158007,0
1681,0.07281124906802909,0
1682,-0.05874232679583039,0
1683,0.05946510305915277,0
1684,2.824232646672256,0
1685,6.619856773322573,0
1686,-2.282643794812816,0
1687,0.6760339253968162,0
1688,-0.07399413465653044,0
1689,0.07198355701462278,0
1690,0.002251048216067024,0
1691,-0.05743358119652866,0
1692,-0.020895083489576305,0
1693,0.03020380857224308,0
1694,0.004205591391502922,0
1695,0.09875442110597363,0
1696,0.031400752762189996,0
1697,-0.001470121205334858,0
1698,0.11444206810792594,0
1699,0.07734927347294032,0
1700,0.43040553542285626,0
1701,5.207068902310098,0
1702,4.219847854196181,0
1703,-2.952301913945411,0
1704,1.66129073320909,0
1705,-0.743153616307049,0
1706,0.34804068180662484,0
1707,-0.172562642994669,0
1708,0.15374308141481985,0
1709,-0.006057923651662456,0
1710,-0.014870586893075565,0
1711,-0.07097289152930837,0
1712,-0.007560762598886312,0
1713,0.04955583498090453,0
1714,0.045332803813276375,0
1715,-0.011491652693305165,0
1716,-0.09563659897159499,0
1717,1.1912878706198422,0
1718,6.707407681056565,0
1719,0.8063882392762548,0
1720,-1.5201037031802442,0
1721,1.00766485627371,0
1722,-0.48325697858066163,0
1723,0.18859505485614333,0
1724,-0.014734455333567431,0
1725,-0.014794810184899795,0
1726,0.03731459265611131,0
1727,-0.007873527044932608,0
1728,-0.013118008698641236,0
1729,-0.04069567536134565,0
1730,-0.024483488570556086,0
1731,0.058413205877063695,0
1732,-0.05277315126141461,0
1733,0.13477188400519802,0
1734,2.9777537888310768,0
1735,6.722527777786546,0
1736,-2.2718550831367867,0
1737,0.6806747190222561,0
1738,-0.08593695394807402,0
1739,0.04846268755346238,0
1740,0.11726178580518123,0
1741,0.059128570869672395,0
1742,-0.002253443860175286,0
1743,0.06268541655918734,0
1744,0.0395658669819122,0
1745,0.1813844725230962,0
1746,0.1515487471838905,0
1747,0.1152656749276331,0
1748,0.08206237032224875,0
1749,-0.005905556760536279,0
1750,0.4819206254604601,0
1751,5.118854855478717,0
1752,4.425865280684884,0
1753,-3.0134930781698395,0
1754,1.5517470884212277,0
1755,-0.7472931147616715,0
1756,0.3196644828663506,0
1757,-0.13249997782582845,0
1758,0.07285820671383868,0
1759,0.013873911122237095,0
1760,0.041625265527684016,0
1761,0.017526465761773854,0
1762,-0.037914119915067684,0
1763,0.012647098280402936,0
1764,-0.03134000409256329,0
1765,-0.019776262923964897,0
1766,0.049286158369521084,0
1767,1.2525585979653258,0
1768,6.707992066100097,0
1769,0.6282920032772804,0
1770,-1.5207868926776404,0
1771,0.9669577386608552,0
1772,-0.47732828335185884,0
1773,0.21195543650670454,0
1774,-0.12161556193181164,0
1775,0.059816823069322546,0
1776,0.011625628730414464,0
1777,-0.012986290462316618,0
1778,0.04131438762817929,0
1779,0.04533429110515275,0
1780,0.029071471503145055,0
1781,-0.05816709024359357,0
1782,0.043866824077417925,0
1783,0.14106950279375802,0
1784,2.9646085660228647,0
1785,6.653307569960747,0
1786,-2.2533984268740292,0
1787,0.6577473773845223,0
1788,-0.05849341651893519,0
1789,0.056518321842129585,0
1790,0.02351631641967575,0
1791,-0.006356007316506056,0
1792,-0.029306629080739627,0
1793,0.009623900972594652,0
1794,0.05442024509656602,0
1795,-0.0635430110360648,0
1796,-0.05598747583432903,0
1797,-0.1739689857148808,0
1798,0.017845712836444014,0
1799,0.0014158458466536662,0
1800,0.44370525044954445,0
1801,5.1940431364713024,0
1802,4.281204054564093,0
1803,-2.9032958129311517,0
1804,1.6323751585245152,0
1805,-0.7610197965009446,0
1806,0.3464072357481767,0
1807,-0.1679533013257578,0
1808,0.08293157161169709,0
1809,0.018147796357941948,0
1810,0.041677907675271755,0
1811,0.08164243881447691,0
1812,0.08141020638397833,0
1813,0.033918383489934326,0
1814,-0.010106323877850244,0
1815,0.04619703819845944,0
1816,-0.019755738935161818,0
1817,1.2446865144778214,0
1818,6.675227337932771,0
1819,0.6337985867111178,0
1820,-1.5453659412065337,0
1821,1.0452905710474298,0
1822,-0.5299636365718675,0
1823,0.25180400478736314,0
1824,0.0006854552758858296,0
1825,-0.06316846210039272,0
1826,0.03156224724952945,0
1827,0.023461117632691958,0
1828,-0.06215374476541279,0
1829,0.12825866671420968,0
1830,-0.0701743344212712,0
1831,0.003993342788104367,0
1832,-0.007521216659398023,0
1833,0.15495925486603487,0
1834,2.923894055964982,0
1835,6.643095360680664,0
1836,-2.340117537878081,0
1837,0.6932619223861005,0
1838,-0.032912130816761156,0
1839,0.09397960582098082,0
1840,-0.003432169840116196,0
1841,0.006644128445740506,0
1842,0.017810515011260283,0
1843,0.0539722482678302,0
1844,0.04827995438748721,0
1845,0.03607802112514613,0
1846,0.011850889602676096,0
1847,0.024650896129205898,0
1848,0.006975517683340857,0
1849,0.009772344095077375,0
1850,0.37657311715754194,0
1851,5.070103649228328,0
1852,4.2688327658100995,0
1853,-2.9464724640671593,0
1854,1.5922008349413608,0
1855,-0.8071382677777736,0
1856,0.39816239938927916,0
1857,-0.09759407174688214,0
1858,-0.08171835725887423,0
1859,-0.01795127138731336,0
1860,0.10124491846752999,0
1861,-0.06692989257769698,0
1862,-0.048596059244673036,0
1863,-0.024006397763129135,0
1864,-0.09167554516909146,0
1865,-0.11091576963248576,0
1866,-0.10710044422969894,0
1867,1.2607859301386597,0
1868,6.700981262802837,0
1869,0.5721945925699439,0
1870,-1.549678296715065,0
1871,1.0067636555710033,0
1872,-0.6306713941634267,0
1873,0.1958904851500486,0
1874,-0.13159818648829008,0
1875,0.03566807499519934,0
1876,-0.050049299177250775,0
1877,-0.047494966047688394,0
1878,-0.024966562468311308,0
1879,-0.03445261607582599,0
1880,0.0447172954166701,0
1881,-0.055854471515406186,0
1882,-0.041826665418447484,0
1883,0.01473461077280231,0
1884,2.980307222605861,0
1885,6.617908109963206,0
1886,-2.3740900187128546,0
1887,0.6072758078970047,0
1888,-0.20888511615618482,0
1889,0.038184074369213644,0
1890,-0.06223296080655495,0
1891,-0.024974839425730658,0
1892,-0.07433883922378098,0
1893,-0.015486972773075558,0
1894,0.051626204850034635,0
1895,-0.10215052690159701,0
1896,-0.10924522258145995,0
1897,-0.056162577347074936,0
1898,0.09453345610713794,0
1899,0.05748968070676992,0
1900,0.4169196990873964,0
1901,5.156328353398351,0
1902,4.181758985378902,0
1903,-3.0584165196161366,0
1904,1.6030843147198695,0
1905,-0.8585785961821653,0
1906,0.2508016710204443,0
1907,-0.11683269202744331,0
1908,0.0535044224043406,0
1909,-0.0932631260594637,0
1910,0.030849812190773797,0
1911,-0.01969289733789907,0
1912,0.04585294564445283,0
1913,-0.020798364239151254,0
1914,0.01179725351837102,0
1915,-0.030749750728045037,0
1916,-0.0428545538908099,0
1917,1.278956032779105,0
1918,6.777754177083302,0
1919,0.6308524656327542,0
1920,-1.3938867521695661,0
1921,0.9124421713539393,0
1922,-0.4861429137686926,0
1923,0.16487433951310582,0
1924,-0.09426657458582176,0
1925,0.04442851069636848,0
1926,-0.08468419854405992,0
1927,0.05670473810479941,0
1928,-0.04094506273136687,0
1929,0.009931659310007468,0
1930,0.014105667068406361,0
1931,0.029391224834927367,0
1932,-0.078230912173817,0
1933,0.07511746277186922,0
1934,2.9860792888479812,0
1935,6.667692045536311,0
1936,-2.303525405157329,0
1937,0.6940743053349782,0
1938,-0.0568363528191467,0
1939,0.0878479794382537,0
1940,0.08355822365119293,0
1941,0.07038210486433609,0
1942,0.057742720850241853,0
1943,0.0796913539735653,0
1944,0.07567561141415444,0
1945,0.08827826971006791,0
1946,-0.07558192698087389,0
1947,-0.005775431970859784,0
1948,-0.06389327122022641,0
1949,-0.08061150342840175,0
1950,0.44896132500850106,0
1951,5.136830468426286,0
1952,4.199655462839965,0
1953,-2.9515261298597624,0
1954,1.569312822459319,0
1955,-0.8075637593449766,0
1956,0.28741833313216536,0
1957,-0.2506055906667058,0
1958,0.03678158573835694,0
1959,-0.11350564715539005,0
1960,-0.008299182988147018,0
1961,-0.04103312289440281,0
1962,-0.08540100340294379,0
1963,0.027081277537746563,0
1964,0.05841186642449819,0
1965,-0.021723858962987543,0
1966,-0.024714205332853602,0
1967,1.3132568673197695,0
1968,6.754859945656285,0
1969,0.6288341045730302,0
1970,-1.372229507829122,0
1971,0.938093302037243,0
1972,-0.4266498561840085,0
1973,0.20500618170844737,0
1974,-0.035517260710531115,0
1975,0.05991309619148804,0
1976,-0.001202330422754163,0
1977,0.08351141441014888,0
1978,0.01830205654400462,0
1979,-0.037300885213837814,0
1980,-0.031246750384163267,0
1981,0.03311308750811502,0
1982,0.05646645910913494,0
1983,0.14890682635517394,0
1984,3.060724628134832,0
1985,6.716340575016787,0
1986,-2.364959899374929,0
1987,0.705860974649154,0
1988,-0.056808208591407255,0
1989,0.004768167516912003,0
1990,0.015059329998111541,0
1991,0.03277884049438903,0
1992,0.02672685592285893,0
1993,-0.008436453284210027,0
1994,0.057013259108549534,0
1995,0.12390395685723238,0
1996,0.00931371072135665,0
1997,0.13222742521085712,0
1998,0.05686610195878097,0
1999,0.07174047166373548,0
2000,0.492862137820201,0
2001,5.115739128047521,0
2002,4.290998706962765,0
2003,-2.848255569985061,0
2004,1.5529031675047513,0
2005,-0.7981802337245507,0
2006,0.3239876163930953,0
2007,-0.05654428544554424,0
2008,0.12812083333954838,0
2009,-0.009582867654734949,0
2010,-0.006140361828192893,0
2011,0.009887545727077899,0
2012,0.09311986496076244,0
2013,0.010358041800892559,0
2014,-0.04705860851719,0
2015,-0.024198048722720075,0
2016,0.007861205073967974,0
2017,1.3242123194574742,0
2018,6.806837248017002,0
2019,0.6309625195699445,0
2020,-1.4192253284013294,0
2021,0.9914240444432194,0
2022,-0.5006447434430059,0
2023,0.29213226177308976,0
2024,-0.034069426097561015,0
2025,0.0545364991380549,0
2026,0.03872388347521715,0
2027,0.02982505021345036,0
2028,0.06892499180592539,0
2029,0.09262282085064637,0
2030,0.06992899732990192,0
2031,0.0542188001763798,0
2032,0.0745209848091053,0
2033,-0.003622008585114439,0
2034,3.0990452586809956,0
2035,6.598322265906411,0
2036,-2.378695272409386,0
2037,0.6624084260005888,0
2038,-0.13247264649013973,0
2039,0.040781072527816924,0
2040,-0.03270055782584987,0
2041,-0.011645153273612971,0
2042,-0.05604706232502772,0
2043,0.012278479063233467,0
2044,0.0365047382498333,0
2045,-0.012882286462730461,0
2046,0.056791181256521696,0
2047,0.014046684105789579,0
2048,0.07050848835233549,0
2049,0.0048472116024686485,0
2050,0.4188253167259903,0
2051,5.199835359618317,0
2052,4.23008042897171,0
2053,-2.8784630964274323,0
2054,1.6156857570432896,0
2055,-0.67835950407049,0
2056,0.3543317911689906,0
2057,-0.04094692212519037,0
2058,0.17301803224888498,0
2059,0.03332113916255189,0
2060,-0.07424333866183437,0
2061,-0.12369177125510074,0
2062,0.033961864317558946,0
2063,-0.050247437133965275,0
2064,-0.08809258439058258,0
2065,-0.06641851595262434,0
2066,-0.10556515849689854,0
2067,1.27743365878287,0
2068,6.713989937226554,0
2069,0.53990034554383,0
2070,-1.3680817900273978,0
2071,1.0343593965075495,0
2072,-0.5261383588528177,0
2073,0.28137789054226925,0
2074,-0.013749543472073696,0
2075,0.022546526818825664,0
2076,0.03191382297022877,0
2077,-0.009637166365354766,0
2078,-0.11371926174239057,0
2079,0.08229021564816613,0
2080,-0.0055586440746874174,0
2081,0.048801105056075114,0
2082,0.06224027029492785,0
2083,-0.02331876711371425,0
2084,3.042636339828728,0
2085,6.565980614378503,0
2086,-2.363972531119031,0
2087,0.8281555145141166,0
2088,-0.08674391117201496,0
2089,0.08763209270395683,0
2090,0.1151005002169471,0
2091,0.012467682269763858,0
2092,0.08698100371971865,0
2093,-0.07379150473855332,0
2094,0.019269940195506714,0
2095,0.04516218371443946,0
2096,-0.03175489565703474,0
2097,-0.0059651127815568555,0
2098,-0.02761959814148002,0
2099,-0.042878216680447695,0
2100,0.40066696539710833,0
2101,5.136541413934169,0
2102,4.143878810862538,0
2103,-2.9203767275018833,0
2104,1.5502482094388244,0
2105,-0.7542150629642089,0
2106,0.27349486540993606,0
2107,-0.06966795039575185,0
2108,-0.011356093521328058,0
2109,0.013562100459993245,0
2110,-0.13040530846133977,0
2111,0.021296371172147124,0
2112,0.06611897570995903,0
2113,0.07107914232363796,0
2114,-0.05255679683683334,0
2115,0.012002528819858246,0
2116,-0.028746924513721857,0
2117,1.3694734442629442,0
2118,6.7509607256868795,0
2119,0.560072887536789,0
2120,-1.4139058525785169,0
2121,0.9641439411693916,0
2122,-0.44245726279882525,0
2123,0.24053490139612932,0
2124,-0.007394958970540669,0
2125,0.05743382824437699,0
2126,0.057859195820316685,0
2127,0.03885338069445837,0
2128,0.07379072144323691,0
2129,0.06907572106280989,0
2130,0.03248806054978074,0
2131,0.09712296199854883,0
2132,0.08440998112763472,0
2133,0.1457425187975644,0
2134,3.146834233757925,0
2135,6.6552957698026045,0
2136,-2.356321728363927,0
2137,0.7257282944710792,0
2138,-0.04035542789663463,0
2139,0.14633041491155746,0
2140,0.02997876974840614,0
2141,0.028399188423834563,0
2142,-0.035738166875009324,0
2143,0.026481092547747994,0
2144,-0.009505035216076665,0
2145,0.08209124837787504,0
2146,0.0037833270007877895,0
2147,-0.003924551234546193,0
2148,-0.010062383203473253,0
2149,0.09707482148287114,0
2150,0.4752973909239292,0
2151,5.255677013889361,0
2152,4.198956665032402,0
2153,-2.8421089470629908,0
2154,1.6092394424607175,0
2155,-0.7291695726887921,0
2156,0.3884516543131311,0
2157,-0.003173254242196444,0
2158,0.05180605632245827,0
2159,-0.043646797638946265,0
2160,0.03384229850487083,0
2161,0.048683652149153406,0
2162,0.1086330064490095,0
2163,0.053543721440707945,0
2164,-0.010232655232153876,0
2165,-0.05605083457830916,0
2166,0.014975184530758873,0
2167,1.2662547935216266,0
2168,6.695400937068646,0
2169,0.45363151776282384,0
2170,-1.4230189848156323,0
2171,0.9941452259871925,0
2172,-0.48994104294862556,0
2173,0.24074911516269326,0
2174,-0.07108661352940387,0
2175,-0.10018003382630739,0
2176,-0.0016643915197859264,0
2177,0.04843938156658309,0
2178,-0.01386365355994432,0
2179,0.024114194951144325,0
2180,-0.050877074589949646,0
2181,-0.013758717776489106,0
2182,-0.07529015628694506,0
2183,0.1134540653114311,0
2184,3.012791812584544,0
2185,6.545133633627283,0
2186,-2.413473418016268,0
2187,0.724299469751419,0
2188,-0.20757568972432117,0
2189,0.0915570707254382,0
2190,-0.0739978414092503,0
2191,-0.029952977834414307,0
2192,-0.151308929724148,0
2193,-0.009362513504801655,0
2194,-0.08847104443654077,0
2195,-0.11260200001018092,0
2196,-0.021008310560442313,0
2197,-0.009846814529393469,0
2198,0.006724871166982838,0
2199,-0.0852034272505663,0
2200,0.4020657124424909,0
2201,5.138382146521285,0
2202,3.9682851216324737,0
2203,-2.8816005884765357,0
2204,1.5531797429796734,0
2205,-0.792135198524674,0
2206,0.2532413384564621,0
2207,-0.04279724456314438,0
2208,0.11152389628681303,0
2209,-0.06068144019534496,0
2210,-0.09717101923882983,0
2211,0.009248049514199268,0
2212,0.022524556756745872,0
2213,0.13120314426031593,0
2214,0.01937106972151608,0
2215,0.08481529080655423,0
2216,0.037203607643479394,0
2217,1.4548726783783101,0
2218,6.7816164635224325,0
2219,0.44017910089145773,0
2220,-1.3108395902639858,0
2221,1.0063233421656144,0
2222,-0.4684043405087237,0
2223,0.2214825849407592,0
2224,-0.003536170469614852,0
2225,0.15395934838616998,0
2226,0.008107583538901942,0
2227,-0.008688551842804707,0
2228,0.13609205239918346,0
2229,-0.06556977792733797,0
2230,-0.03856387109490499,0
2231,-0.0013581873288526932,0
2232,-0.013293068357680944,0
2233,0.10620588274357215,0
2234,3.095169237316199,0
2235,6.503342291168193,0
2236,-2.4682065348536395,0
2237,0.7699978606345168,0
2238,-0.1449083602570333,0
2239,0.06517328601093524,0
2240,-0.027807717315055124,0
2241,-0.017969825052871532,0
2242,-0.10723075932302427,0
2243,-0.01982480683849792,0
2244,0.020547004261785674,0
2245,0.006204477165759457,0
2246,0.03405654768374452,0
2247,-0.04616971560958931,0
2248,-0.03755650808600639,0
2249,0.05219663972652768,0
2250,0.40878235811626024,0
2251,5.225256005263827,0
2252,4.091044683375398,0
2253,-2.912973017657852,0
2254,1.5022943498602017,0
2255,-0.759169177982437,0
2256,0.3022346237653864,0
2257,-0.11821767573926108,0
2258,-0.030558063990234134,0
2259,-0.022917077816129585,0
2260,0.0030402233724447017,0
2261,0.016433294615584428,0
2262,0.0077400332200185575,0
2263,-0.028454103278214717,0
2264,-0.004255239527425028,0
2265,0.04176732171815106,0
2266,0.004323145448412552,0
2267,1.4087004876495939,0
2268,6.723558238447194,0
2269,0.5654265054735872,0
2270,-1.3516489710943862,0
2271,1.0032417872159292,0
2272,-0.46241748034562846,0
2273,0.18149742128465046,0
2274,-0.107682700945399,0
2275,-0.10217107763617948,0
2276,0.009807175811658415,0
2277,-0.09154175970143949,0
2278,-0.05518584245233298,0
2279,0.020410071832025423,0
2280,-0.08739401043729264,0
2281,-0.06919018106075692,0
2282,-0.12036049223152431,0
2283,0.018225447428063063,0
2284,2.9667593294581103,0
2285,6.497040290645324,0
2286,-2.424799127056552,0
2287,0.6549702748122215,0
2288,-0.2807787168711707,0
2289,0.043907679575718075,0
2290,-0.10614269926057637,0
2291,0.05536376049216767,0
2292,-0.012228071993505658,0
2293,-0.04193045230575991,0
2294,0.03619638788261874,0
2295,0.02967586075007042,0
2296,0.012511857909083803,0
2297,-0.008196999185928634,0
2298,-0.043528310034960854,0
2299,0.021559218369705854,0
2300,0.29243862903677426,0
2301,5.0948631096091646,0
2302,3.993260915890951,0
2303,-2.8973825037527603,0
2304,1.5995330502777987,0
2305,-0.8289862261255359,0
2306,0.3795669538791261,0
2307,-0.09275211289763464,0
2308,-0.02293852465986245,0
2309,-0.080658082410629,0
2310,-0.08675056234959999,0
2311,-0.04624203304519056,0
2312,-0.14186878763239086,0
2313,-0.17613695967443477,0
2314,-0.13969374186766287,0
2315,-0.01993161246461074,0
2316,-0.12094167864972735,0
2317,1.256416845732295,0
2318,6.66263798653619,0
2319,0.42145482260294675,0
2320,-1.366455632356804,0
2321,0.8859944519859837,0
2322,-0.6456965709353667,0
2323,0.04408286426219481,0
2324,-0.12370100599306992,0
2325,-0.08270699264474382,0
2326,-0.16123569714808667,0
2327,-0.07058964978016888,0
2328,-0.08238328595663676,0
2329,-0.16642637329877513,0
2330,-0.15589143060968752,0
2331,-0.07463539313022252,0
2332,-0.12341363650818918,0
2333,-0.056834254669402985,0
2334,3.05220693173586,0
2335,6.521814532140009,0
2336,-2.4145000982429035,0
2337,0.8630095429456657,0
2338,-0.15611728136719974,0
2339,0.11035385648551056,0
2340,-0.020466519165858937,0
2341,0.043344258517861015,0
2342,0.03327536161500969,0
2343,0.061860697856085285,0
2344,-0.029248273623711546,0
2345,0.04697775842201923,0
2346,-0.015591052132035646,0
2347,0.023832062930732922,0
2348,0.03796861951398983,0
2349,0.09421789612961519,0
2350,0.4092061259611642,0
2351,5.1174949098233276,0
2352,3.9530668116373593,0
2353,-2.9567268959284587,0
2354,1.4958278634522308,0
2355,-0.818119794029005,0
2356,0.18479688765450447,0
2357,-0.15762854958091746,0
2358,-0.003215702413616098,0
2359,-0.10356249989663385,0
2360,-0.058136148524460814,0
2361,0.00998437949847433,0
2362,-0.05902901387626367,0
2363,0.05958847148790537,0
2364,-0.005377054232949271,0
2365,0.06782441202572818,0
2366,0.027945338569575037,0
2367,1.3221225964025907,0
2368,6.692893389165013,0
2369,0.35870201560290205,0
2370,-1.4255796106635727,0
2371,0.9293972441517996,0
2372,-0.49946945235319695,0
2373,0.2183924073766622,0
2374,-0.02991636721326242,0
2375,0.06449935621576626,0
2376,-0.0016415182109573226,0
2377,0.02096179993596503,0
2378,-0.08558064597808909,0
2379,-0.03156819431162122,0
2380,-0.01999991693222353,0
2381,0.027088756696530672,0
2382,0.001116264254529549,0
2383,0.05174527690003415,0
2384,3.085134079299688,0
2385,6.456101223182854,0
2386,-2.420144212651326,0
2387,0.8391146128543133,0
2388,-0.11518324822598489,0
2389,0.0641317896771209,0
2390,0.06875317861928285,0
2391,0.16100596711130907,0
2392,0.07068395584455212,0
2393,0.032630577152177334,0
2394,-0.0522425362521786,0
2395,-0.03131731326002209,0
2396,0.017544630943198327,0
2397,0.03617514205292388,0
2398,-0.03986867553966864,0
2399,0.003952174674357909,0
2400,0.3742491974422018,0
2401,5.256680670620878,0
2402,4.020466461082217,0
2403,-2.855873341337471,0
2404,1.5517930060252987,0
2405,-0.8319110593045642,0
2406,0.2866790510920131,0
2407,-0.0876366909933421,0
2408,0.02581998698865251,0
2409,-0.06047353741354951,0
2410,-0.03905244875677337,0
2411,0.028575778934541968,0
2412,0.008228675774113584,0
2413,-0.0215759121996728,0
2414,0.10687107241964625,0
2415,0.01703790418762352,0
2416,-0.0004767464259742794,0
2417,1.4035612004641667,0
2418,6.8522954279692065,0
2419,0.34907431086986945,0
2420,-1.309501059614179,0
2421,0.8737622694758173,0
2422,-0.47157764848398354,0
2423,0.20401252865155942,0
2424,-0.13260817870638955,0
2425,0.050138607489855484,0
2426,0.056302725306703195,0
2427,-0.032961018198646906,0
2428,0.009307499558899335,0
2429,-0.037840870481732805,0
2430,0.0897936986381005,0
2431,-0.005351223561937006,0
2432,0.1157546373108784,0
2433,0.11064583745291488,0
2434,3.204800379000368,0
2435,6.550098934008916,0
2436,-2.415450738378202,0
2437,0.8149659628721622,0
2438,-0.15671691638594012,0
2439,0.06573987963759986,0
2440,0.0767029364587675,0
2441,0.018630179463541098,0
2442,0.03564794195496136,0
2443,0.023127907608659206,0
2444,0.0384775888129707,0
2445,0.057073351012918064,0
2446,-0.05502931585802702,0
2447,-0.010015224315566455,0
2448,0.02600058557810766,0
2449,0.03820085737095051,0
2450,0.3892605537580238,0
2451,5.290967859655462,0
2452,4.129169748408718,0
2453,-2.9153973162079,0
2454,1.6361235320277374,0
2455,-0.7390729833114819,0
2456,0.32054203240410184,0
2457,-0.16308182372768384,0
2458,-0.030280526894244278,0
2459,-0.05615505875519107,0
2460,-0.03937405239341307,0
2461,0.005780534473608366,0
2462,0.014767016318664132,0
2463,0.0024719114885373185,0
2464,-0.022380992080641267,0
2465,0.07639832500515895,0
2466,0.0010640426444219683,0
2467,1.3302476098489873,0
2468,6.828827613764158,0
2469,0.3780640790411646,0
2470,-1.214953939004394,0
2471,0.9803915571624815,0
2472,-0.35827653417616356,0
2473,0.28672111889703916,0
2474,-0.022154352214599136,0
2475,0.05123498909644226,0
2476,0.09944760738693365,0
2477,0.07765806080744503,0
2478,-0.0501843411782706,0
2479,0.05784185527356943,0
2480,0.04536431202636755,0
2481,0.0013066533435415369,0
2482,0.020016754676722846,0
2483,0.030957588998568056,0
2484,3.2373335346454,0
2485,6.5053228833086925,0
2486,-2.5220063666195425,0
2487,0.7867245336448069,0
2488,-0.1652710438091487,0
2489,0.01931071752032385,0
2490,0.0002611173927036872,0
2491,0.06885237557870033,0
2492,-0.023268099024124713,0
2493,0.0599350201170861,0
2494,-0.061946716859078516,0
2495,-0.00397289600872588,0
2496,-0.03379279279545291,0
2497,-0.12354621870917767,0
2498,-0.05512849540523494,0
2499,-0.07291555203133394,0
2500,0.31472901265241926,0
2501,5.287548434965421,0
2502,3.9157086685549833,0
2503,-2.976186359214601,0
2504,1.568546008542717,0
2505,-0.8518989352740063,0
2506,0.3564218849300268,0
2507,-0.04583728621713512,0
2508,0.019585208040869793,0
2509,0.06230025347388442,0
2510,0.0529627634905632,0
2511,-0.06529682528236859,0
2512,0.003468002341802466,0
2513,0.008674850050376836,0
2514,0.03850260005850264,0
2515,-0.059537642101213095,0
2516,0.022557896822736442,0
2517,1.450188288857797,0
2518,6.8874255466873775,0
2519,0.4168583765798703,0
2520,-1.2299088400751035,0
2521,0.8298524299994519,0
2522,-0.45048191926750203,0
2523,0.2144085921558265,0
2524,-0.05248026202666519,0
2525,-0.03336470578330228,0
2526,0.0010920478743969273,0
2527,-0.033878924634362234,0
2528,-0.042684191140542976,0
2529,0.038359491628910246,0
2530,-0.009446439427543073,0
2531,-0.062445815414051635,0
2532,-0.01850737784534094,0
2533,0.03904274171071989,0
2534,3.1999189455432258,0
2535,6.546175346499314,0
2536,-2.4893672767476382,0
2537,0.7300188104441756,0
2538,-0.25019404713159543,0
2539,0.1413337281883331,0
2540,-0.07993248038629355,0
2541,0.027627482540758933,0
2542,-0.10295546637399479,0
2543,0.010836453189451308,0
2544,-0.014050139753434525,0
2545,0.00039829474743772325,0
2546,0.024664550887030727,0
2547,-0.10401260314829598,0
2548,-0.08584279113897654,0
2549,0.002851076425363225,0
2550,0.38695450450810326,0
2551,5.2877436444509245,0
2552,3.8773037951198313,0
2553,-2.834807694720358,0
2554,1.5681997821194122,0
2555,-0.8112998230563585,0
2556,0.35946219597125845,0
2557,-0.0642301460765358,0
2558,0.03636290427853981,0
2559,0.03291705846533095,0
2560,0.008114360630201838,0
2561,0.031009347372815493,0
2562,0.0631926458413331,0
2563,0.07329310153395382,0
2564,-0.02854129456886697,0
2565,0.09105195755693095,0
2566,0.10484929414539879,0
2567,1.3636823550500878,0
2568,6.85009346975645,0
2569,0.25125059612110423,0
2570,-1.2004801940864445,0
2571,0.9257689501886917,0
2572,-0.4464835776390546,0
2573,0.15397171995151154,0
2574,-0.009649484209318486,0
2575,0.07617237257092087,0
2576,0.08340296132279809,0
2577,0.03497695324662996,0
2578,0.04723527418975087,0
2579,-0.011733397407839897,0
2580,0.05107292344001157,0
2581,0.05419088752010809,0
2582,0.06281019143757338,0
2583,0.11155151785996054,0
2584,3.2364654671757074,0
2585,6.465967853374575,0
2586,-2.5101845083182135,0
2587,0.841638287587383,0
2588,-0.11394549579819219,0
2589,0.09681035048155892,0
2590,0.004674090070942273,0
2591,0.07927655282059229,0
2592,0.011840804841457272,0
2593,-0.05705321355497903,0
2594,0.018986609288083746,0
2595,0.08298193842117779,0
2596,0.12137073511028725,0
2597,0.13552825587890882,0
2598,0.03750541597174793,0
2599,0.02573593153348554,0
2600,0.4486304752064601,0
2601,5.286981916772641,0
2602,3.9765935149959963,0
2603,-2.799658118538717,0
2604,1.635552596903381,0
2605,-0.7247834978486081,0
2606,0.2946801028198953,0
2607,-0.06349675244618228,0
2608,0.05384454427009597,0
2609,0.021201409586263754,0
2610,-0.038122558980047495,0
2611,0.10907490969883704,0
2612,-0.0035187841994870368,0
2613,0.01789311621914864,0
2614,-0.04260243317839318,0
2615,0.01746126732997612,0
2616,0.06506844076750115,0
2617,1.3740105179206146,0
2618,6.8518063373065115,0
2619,0.44038233739338417,0
2620,-1.1819044739070912,0
2621,1.073252191594486,0
2622,-0.4453245436633721,0
2623,0.21057234784164122,0
2624,-0.04854908855636554,0
2625,0.05534733966662413,0
2626,-0.05666473176517923,0
2627,0.045376640689856244,0
2628,0.06194883977486513,0
2629,0.025726932417646144,0
2630,-0.026612390176831886,0
2631,-0.07981313768844008,0
2632,-0.003147934475275057,0
2633,0.1217708266901961,0
2634,3.231466217993095,0
2635,6.50250781718849,0
2636,-2.536601886314732,0
2637,0.774149052790067,0
2638,-0.2843787315295895,0
2639,-0.03598752735355103,0
2640,0.03060422834788731,0
2641,-0.05271253267012399,0
2642,-0.04866518752113258,0
2643,-0.03418649614610197,0
2644,0.04133123019543818,0
2645,-0.04257216503499252,0
2646,0.03293283010443482,0
2647,-0.01303821667589688,0
2648,-0.024509180602294893,0
2649,-0.005498738433528608,0
2650,0.5019861470261517,0
2651,5.28402964538083,0
2652,3.877451315183764,0
2653,-2.9197476996417997,0
2654,1.5192804719597495,0
2655,-0.7651816285317056,0
2656,0.3720813939848673,0
2657,-0.15755052999589497,0
2658,0.10745434438435125,0
2659,-0.02382968897006265,0
2660,0.04486357803960231,0
2661,0.10545857440101548,0
2662,0.04977676883654142,0
2663,0.09692493730409943,0
2664,0.02798341623599705,0
2665,-0.03840148665855024,0
2666,-0.0838058457525206,0
2667,1.4312553216949566,0
2668,6.806274514288701,0
2669,0.2799111688770841,0
2670,-1.1839546867859516,0
2671,0.9999423062958284,0
2672,-0.4238521354680514,0
2673,0.24106213496073825,0
2674,-0.06927392305221523,0
2675,0.05152228094714469,0
2676,-0.08057064329689516,0
2677,0.018794764001825417,0
2678,0.013008079310354904,0
2679,0.12642551930947246,0
2680,0.021413590275256307,0
2681,0.021030737674437628,0
2682,-0.006243126114758385,0
2683,0.1127745102641968,0
2684,3.236352257364142,0
2685,6.567416783214551,0
2686,-2.483729957035031,0
2687,0.8721504120397253,0
2688,-0.1998681309356028,0
2689,0.038348516521724524,0
2690,0.012696490802073213,0
2691,0.09425341558518399,0
2692,0.08411032930847656,0
2693,0.04526641102617258,0
2694,0.10316556271802332,0
2695,0.11959271609630887,0
2696,0.07336110505598903,0
2697,0.006164060167312059,0
2698,-0.041659715777951745,0
2699,0.023163201344527234,0
2700,0.48805344359779546,0
2701,5.358466157874401,0
2702,3.8932025900100893,0
2703,-2.870305686306224,0
2704,1.6512611259613932,0
2705,-0.8196676594147295,0
2706,0.34721532072793826,0
2707,0.01015096121648651,0
2708,0.14336392641412513,0
2709,0.08462594679553478,0
2710,0.037264927240198684,0
2711,0.03065071217727871,0
2712,-0.005265407974032452,0
2713,0.07994632474156754,0
2714,0.08910939989867334,0
2715,0.054626425678391245,0
2716,0.013166010072952442,0
2717,1.506550391025463,0
2718,6.82992395366151,0
2719,0.4086423257680285,0
2720,-1.192419689913054,0
2721,0.8822515964412093,0
2722,-0.4651561061286703,0
2723,0.21980608887868963,0
2724,-0.007378924196553813,0
2725,0.03768685126565007,0
2726,0.005931567484705212,0
2727,0.034504220566486096,0
2728,0.00922893853989223,0
2729,-0.011604563575758406,0
2730,0.02849783202493917,0
2731,-0.03739194753164333,0
2732,-0.037651609881863224,0
2733,0.06190902779156165,0
2734,3.2268066866133815,0
2735,6.472049634801088,0
2736,-2.5828312912278704,0
2737,0.8714261164105455,0
2738,-0.2649045905315944,0
2739,0.04907139846851191,0
2740,-0.03509945479327832,0
2741,0.04475031927187582,0
2742,-0.01067300078655629,0
2743,0.12521561265412004,0
2744,0.02779159213795844,0
2745,0.10648526738254367,0
2746,0.021284927634788994,0
2747,0.022113472070184766,0
2748,-0.05487766972582174,0
2749,0.05861776586222846,0
2750,0.39810695436748017,0
2751,5.338547422780116,0
2752,3.882592837066343,0
2753,-2.8238496116164002,0
2754,1.658639499565313,0
2755,-0.790207230720755,0
2756,0.3593428633503436,0
2757,-0.018458294340937674,0
2758,0.1260344290817112,0
2759,0.07961287563813273,0
2760,0.10325683197705814,0
2761,0.01854708093135011,0
2762,0.10516579456398423,0
2763,0.08766748059791755,0
2764,0.06549349997461176,0
2765,-0.00716254666254082,0
2766,0.1550959384372066,0
2767,1.5082354820793136,0
2768,6.853175082956934,0
2769,0.1693838676420394,0
2770,-1.1686462840528953,0
2771,0.8890089983399754,0
2772,-0.43333141999100233,0
2773,0.21274288615647852,0
2774,-0.08079826917590247,0
2775,0.13295798397437425,0
2776,0.16162531718374193,0
2777,0.003714812022350425,0
2778,0.08314459107795974,0
2779,0.05328220948835978,0
2780,0.16289234955086027,0
2781,0.11752148410204227,0
2782,0.08889059076864543,0
2783,0.14372350001429213,0
2784,3.353508104027307,0
2785,6.548158085321103,0
2786,-2.466116970846466,0
2787,0.9252575108834346,0
2788,-0.18678048789848617,0
2789,0.10442303846217221,0
2790,-0.02985207561389367,0
2791,0.14036339756528626,0
2792,0.0003185073037765898,0
2793,-0.030665394297551118,0
2794,-0.03353529437326421,0
2795,0.044251496425815315,0
2796,0.01059055392834454,0
2797,-0.005093651025979074,0
2798,0.05488907584187851,0
2799,0.020665847581577187,0
2800,0.5303599761827518,0
2801,5.3762003451104565,0
2802,3.920106982352172,0
2803,-2.8186569122265777,0
2804,1.687430211260545,0
2805,-0.8410027041493641,0
2806,0.39294015497693435,0
2807,-0.07658633744232604,0
2808,0.07593223025208048,0
2809,0.07050598615008305,0
2810,0.0847888042196941,0
2811,-0.00868114541725306,0
2812,-0.03798119881169,0
2813,-0.017763533208270864,0
2814,-0.06676294492767348,0
2815,0.12760871127640286,0
2816,0.008112328954035995,0
2817,1.5602112304899283,0
2818,6.9677886496236585,0
2819,0.18111666741555144,0
2820,-1.1647778198129508,0
2821,0.9228018206181153,0
2822,-0.37671898111201985,0
2823,0.20923631370178436,0
2824,0.02166620218477576,0
2825,0.08750713484121879,0
2826,0.0030783466404590842,0
2827,0.027669943393561505,0
2828,0.04167927897094151,0
2829,0.006553119000947308,0
2830,-0.02326946964639604,0
2831,0.06918189404475449,0
2832,0.011342326097090422,0
2833,0.14277432151881925,0
2834,3.2560788617951384,0
2835,6.355625763445511,0
2836,-2.4880866764621166,0
2837,0.8264568651964885,0
2838,-0.20429234830335374,0
2839,0.0747339407988189,0
2840,0.04878304090296054,0
2841,0.00045197888390100666,0
2842,0.025408139909323387,0
2843,-0.06516889072646745,0
2844,0.0290948622159738,0
2845,-0.026059444210269705,0
2846,-0.002158568025331511,0
2847,0.04236328820165961,0
2848,-0.06935040509362349,0
2849,-0.030508381157442345,0
2850,0.46740549401554937,0
2851,5.379705036746346,0
2852,3.7262664688891856,0
2853,-2.876905964411564,0
2854,1.4678840122714947,0
2855,-0.8193977393440478,0
2856,0.304985530144387,0
2857,-0.17968189551879588,0
2858,-0.015676658335321593,0
2859,-0.08515479618196001,0
2860,-0.14245820047042887,0
2861,-0.04401002466316652,0
2862,0.026251067013105117,0
2863,0.018407719867841385,0
2864,-0.07278195926101827,0
2865,-0.006690885200840251,0
2866,-0.025542094522697463,0
2867,1.4703085987471842,0
2868,6.875082948557992,0
2869,0.1789343429075823,0
2870,-1.1170875669067444,0
2871,0.7972077655862034,0
2872,-0.4882691582993104,0
2873,0.1873146517691861,0
2874,-0.08964879387875585,0
2875,0.06496665424541526,0
2876,0.023506315368805906,0
2877,-0.04385141182391282,0
2878,-0.009176915941866119,0
2879,-0.104330449929135,0
2880,-0.0594962600864303,0
2881,-0.09653806846714058,0
2882,0.0006142398140176961,0
2883,0.05406955262276111,0
2884,3.1370606845629174,0
2885,6.321267916864309,0
2886,-2.6277052290321117,0
2887,0.9207240899381781,0
2888,-0.2171982289402376,0
2889,0.07122449229318618,0
2890,-0.07529062560527008,0
2891,-0.05240043921488008,0
2892,-0.10507209745281358,0
2893,0.02420350224040156,0
2894,-0.03872587141363891,0
2895,0.024436927416995696,0
2896,-0.04333255040609603,0
2897,-0.019435019702367218,0
2898,-0.016446363694093795,0
2899,-0.018795848789671263,0
2900,0.42390927987674165,0
2901,5.364237723894817,0
2902,3.6952361232863673,0
2903,-2.924705319939994,0
2904,1.4531104723372459,0
2905,-0.859325202905225,0
2906,0.2843005065714092,0
2907,-0.19496860403602412,0
2908,-0.02902345143563651,0
2909,-0.11448166925026364,0
2910,-0.11531230970038234,0
2911,-0.08868232733381601,0
2912,-0.05373133946871342,0
2913,-0.07385229093559548,0
2914,-0.06715854894755752,0
2915,-0.13061075258742041,0
2916,-0.08460178322474181,0
2917,1.351228007614979,0
2918,6.806148904938973,0
2919,0.0019732599090261926,0
2920,-1.2440112565954327,0
2921,0.783596581208233,0
2922,-0.5655302887439204,0
2923,0.20226568384359023,0
2924,-0.16605795259991246,0
2925,-0.15539508950502723,0
2926,-0.040140901203815096,0
2927,-0.11095220983700424,0
2928,-0.011236064557309466,0
2929,-0.04971661604965941,0
2930,-0.11595523560951629,0
2931,-0.15438812700676463,0
2932,0.009022058053096915,0
2933,-0.015191790034842917,0
2934,3.2483674293387352,0
2935,6.339201845879234,0
2936,-2.575197033153895,0
2937,0.8392429815020942,0
2938,-0.3456993700340591,0
2939,0.012210797957891727,0
2940,-0.11782353760316641,0
2941,-0.03541482585965946,0
2942,-0.06557402001678027,0
2943,-0.038502173525306466,0
2944,0.01701114855695543,0
2945,-0.06641472149236742,0
2946,-0.03527590642512258,0
2947,-0.0281166407739025,0
2948,-0.05398776580711468,0
2949,0.03509754490254984,0
2950,0.43929845442728527,0
2951,5.343947508489165,0
2952,3.705499214798974,0
2953,-2.894057775946968,0
2954,1.5304289031719136,0
2955,-0.90057318907039,0
2956,0.27671782055126753,0
2957,-0.12579370597470366,0
2958,-0.06211803084153342,0
2959,-0.10497071219899334,0
2960,0.02358618351031607,0
2961,-0.10407790635039306,0
2962,-0.0042488340041941484,0
2963,-0.058741719985398066,0
2964,-0.10177504764081334,0
2965,0.001928818931175115,0
2966,-0.02614197705320869,0
2967,1.4806159596247006,0
2968,6.764926638758425,0
2969,0.03584698505573163,0
2970,-1.232131215929414,0
2971,0.8535704428951267,0
2972,-0.5070452321063952,0
2973,0.056634375602766504,0
2974,-0.17459379064165084,0
2975,-0.08222396140738478,0
2976,-0.13544044082945772,0
2977,0.005954383441001708,0
2978,-0.006342002136162046,0
2979,-0.020991995542233726,0
2980,-0.08851259306685914,0
2981,0.023210533460461334,0
2982,0.015838611953109476,0
2983,0.10945303170980336,0
2984,3.267623676541028,0
2985,6.444100533087615,0
2986,-2.5681292602372325,0
2987,0.8751993684321645,0
2988,-0.38717671596128694,0
2989,-0.005487394767046225,0
2990,-0.04465227732033635,0
2991,-0.09391073903470715,0
2992,0.05781805611926752,0
2993,0.06169160365311134,0
2994,0.0754515592471765,0
2995,-0.08315635548063788,0
2996,-0.09926237585117427,0
2997,-0.05365337601228388,0
2998,-0.031477704814768345,0
2999,-0.00407130830264027,0
3000,0.43991410312789037,0
3001,5.305735063770023,0
3002,3.721182916395507,0
3003,-2.8212042092679326,0
3004,1.556004908900109,0
3005,-0.8031157568125556,0
3006,0.3465739803951775,0
3007,-0.12381272742418081,0
3008,-0.017483645706487996,0
3009,-0.04910330417526435,0
3010,-0.1088902445344459,0
3011,0.046396568348955766,0
3012,-0.0404519062516108,0
3013,-0.03861777801728858,0
3014,0.001755179645184582,0
3015,0.07724795230787382,0
3016,-0.1052500194104371,0
3017,1.4845709379879872,0
3018,6.8715807681815875,0
3019,0.08296001446473102,0
3020,-1.1398515141141654,0
3021,0.7810060707875925,0
3022,-0.45600020260028695,0
3023,0.19393561338964374,0
3024,-0.09703497052687368,0
3025,-0.01282221320949651,0
3026,0.1546447104977052,0
3027,-0.09210152077655119,0
3028,-0.02875994659668501,0
3029,0.021035108871413237,0
3030,0.06553025753835905,0
3031,-0.09512943939400785,0
3032,-0.00109641244484243,0
3033,0.03523975221715836,0
3034,3.333826552044006,0
3035,6.387226084631708,0
3036,-2.57242847288455,0
3037,0.8407554787633404,0
3038,-0.2279992908558801,0
3039,0.12501773926217633,0
3040,0.011642724707315047,0
3041,0.02749416255118922,0
3042,0.0197698437867082,0
3043,0.19805106263535446,0
3044,0.11805073046039119,0
3045,0.029424824527237006,0
3046,0.03824945191937208,0
3047,0.03565314037954479,0
3048,0.0035228456729687087,0
3049,-0.04696475092293477,0
3050,0.4421267692698257,0
3051,5.471104380517284,0
3052,3.7198311548949556,0
3053,-2.8558353322355536,0
3054,1.5487344312196696,0
3055,-0.8216161647376382,0
3056,0.3971474871731474,0
3057,-0.06335862473268475,0
3058,0.009241435897681335,0
3059,0.06884151184684026,0
3060,0.01777080530659801,0
3061,0.019925833426926276,0
3062,0.024095786248417662,0
3063,0.013251196071391634,0
3064,0.024667852584873612,0
3065,-0.12749214628448283,0
3066,0.053598027838423934,0
3067,1.4401706578680402,0
3068,6.8212769699812,0
3069,0.12648228730313713,0
3070,-1.0894254704213928,0
3071,0.8152619515813806,0
3072,-0.45767817386793086,0
3073,0.1707403445506017,0
3074,-0.0505924822923457,0
3075,0.04193168269383024,0
3076,0.020080058109022844,0
3077,0.11252536590897735,0
3078,-0.005889030955472701,0
3079,0.06359166983714501,0
3080,-0.12087964114749673,0
3081,0.12117901705905276,0
3082,0.07071863804016605,0
3083,0.08191816900169055,0
3084,3.3994301755593956,0
3085,6.36151077431006,0
3086,-2.683112161772311,0
3087,0.8914222841223091,0
3088,-0.30639209528352584,0
3089,0.05984598024517663,0
3090,-0.08821577545032809,0
3091,-0.013143209904293351,0
3092,-0.13805696276232396,0
3093,-0.05806742477663943,0
3094,-0.07502441061441657,0
3095,-0.09759801416085268,0
3096,-0.03690948314664437,0
3097,0.0009214103667017984,0
3098,-0.0022939943882218927,0
3099,0.018476833603949073,0
3100,0.5050288259582258,0
3101,5.420151938744229,0
3102,3.660933184782865,0
3103,-2.7827252769498534,0
3104,1.5872965397522092,0
3105,-0.7909605738475409,0
3106,0.33107331946955376,0
3107,-0.010954418999678812,0
3108,-0.027614332215158924,0
3109,0.0036620917583512907,0
3110,0.023271218527369388,0
3111,0.07945100237304832,0
3112,0.11485335534352868,0
3113,0.041657602963924394,0
3114,0.07440554541866404,0
3115,-0.03290027687965085,0
3116,0.04104528117268477,0
3117,1.5958616920766588,0
3118,6.886578874137415,0
3119,0.10017419533744093,0
3120,-1.1129560390420443,0
3121,0.901785461014261,0
3122,-0.42037487920222616,0
3123,0.12096108795730022,0
3124,-0.05273899124116084,0
3125,-0.015268585245783721,0
3126,-0.1290060555376854,0
3127,0.009778882273752067,0
3128,-0.004455228107835729,0
3129,0.03325826751277096,0
3130,0.05914958663261155,0
3131,0.04154507065774324,0
3132,-0.002181645846732229,0
3133,0.07654803846036191,0
3134,3.280931006520281,0
3135,6.409737127351942,0
3136,-2.563803676321531,0
3137,0.9939342972207601,0
3138,-0.29758373024948953,0
3139,0.05774529510451469,0
3140,-0.024395620387493853,0
3141,0.07140757521014027,0
3142,-0.030608185997801046,0
3143,0.04104430443868226,0
3144,0.04659578254972736,0
3145,0.004619813046044811,0
3146,0.022616257352957504,0
3147,-0.03188297276042801,0
3148,0.06350101864185309,0
3149,-0.008894333928365455,0
3150,0.4991177596323356,0
3151,5.391184954428342,0
3152,3.6864433251687303,0
3153,-2.7544777676431833,0
3154,1.6007737873427625,0
3155,-0.7863598042503726,0
3156,0.28352546048472693,0
3157,-0.05813836852051856,0
3158,0.12723074593844816,0
3159,0.027960625662724378,0
3160,0.07064223639118365,0
3161,0.023975685309313675,0
3162,0.03494505490107487,0
3163,0.006912877499381877,0
3164,0.04498974026571867,0
3165,0.08066982801416672,0
3166,0.04400840849401281,0
3167,1.5463313196303055,0
3168,6.873165573038449,0
3169,0.05229212079220288,0
3170,-1.2047664804574774,0
3171,0.8492304251073881,0
3172,-0.38624899701808285,0
3173,0.3264946145769878,0
3174,-0.05639485883781782,0
3175,-0.08990719526950913,0
3176,0.002664521061128071,0
3177,0.09887608074223103,0
3178,0.004100931480120824,0
3179,0.007099110239483249,0
3180,0.04216776338863031,0
3181,0.0617285057361568,0
3182,-0.001164646375075952,0
3183,0.06436036697616779,0
3184,3.337879513392088,0
3185,6.359565356550146,0
3186,-2.674998225692508,0
3187,1.0139665568360279,0
3188,-0.29630095782322935,0
3189,0.061706068727144944,0
3190,-0.12249829864090557,0
3191,0.008077690023477512,0
3192,-0.026428743068651284,0
3193,-0.07163999892960135,0
3194,-0.11988080985045502,0
3195,-0.015549450455733634,0
3196,0.043357734009927165,0
3197,0.07438330251195525,0
3198,-0.04637533950050196,0
3199,-0.06288705788263006,0
3200,0.4725321737041228,0
3201,5.412264574715553,0
3202,3.6147853691092346,0
3203,-2.71610548967178,0
3204,1.6788390254877257,0
3205,-0.6668957355134327,0
3206,0.3891183710597839,0
3207,-0.05590498750728555,0
3208,0.000342248167704548,0
3209,0.02320884592995575,0
3210,0.09257691779007077,0
3211,0.039281244603008136,0
3212,0.0904164924881245,0
3213,0.054419659364562986,0
3214,0.007300916588000288,0
3215,0.08850174472978478,0
3216,0.021092776857412336,0
3217,1.6142737143631833,0
3218,7.006674779738291,0
3219,0.05291551681510886,0
3220,-0.9639207476340224,0
3221,1.014961854149747,0
3222,-0.26762152986502036,0
3223,0.31779886837313276,0
3224,0.14950497354294018,0
3225,0.13619508835239155,0
3226,0.15144568833658484,0
3227,0.07987511332772809,0
3228,0.05245472814891723,0
3229,0.11227228637096878,0
3230,0.1150048063067084,0
3231,0.011307510026284742,0
3232,-0.0010553485131388,0
3233,0.14579018931615076,0
3234,3.384704991217036,0
3235,6.383151662409758,0
3236,-2.560487269294954,0
3237,0.9505748179911462,0
3238,-0.23255546289678633,0
3239,0.2359333877789831,0
3240,0.013549467818147823,0
3241,0.08194682121487229,0
3242,0.07555204978335084,0
3243,0.15940344606940632,0
3244,0.12088196944784431,0
3245,0.08650384310186922,0
3246,0.14287353334390512,0
3247,0.06053280040525023,0
3248,0.09356915672079247,0
3249,0.052955012939762236,0
3250,0.62310379473334,0
3251,5.599679914706784,0
3252,3.7291898687992564,0
3253,-2.7613126004320465,0
3254,1.717001459237211,0
3255,-0.7172947118010236,0
3256,0.32766318982945697,0
3257,-0.15399776724547612,0
3258,-0.04119571091877582,0
3259,0.03678815661140411,0
3260,0.03738784478724315,0
3261,0.0593826419409537,0
3262,-0.053938943516445764,0
3263,-0.06220468864978823,0
3264,0.004486447765446031,0
3265,-0.045866220901041733,0
3266,-0.005831805405741873,0
3267,1.5751875897001562,0
3268,6.911790744007096,0
3269,-0.03160742425155659,0
3270,-1.0997097067263524,0
3271,0.8897103381357915,0
3272,-0.3967258386824712,0
3273,0.18030482781312204,0
3274,0.003816095791848464,0
3275,0.04375021774773425,0
3276,0.07639824296289668,0
3277,-0.0057284597132341575,0
3278,0.12052424605456279,0
3279,0.04672261720258106,0
3280,0.048390398682160475,0
3281,0.04359698612246464,0
3282,-0.06321182230253179,0
3283,0.08749257420547354,0
3284,3.4424843134696177,0
3285,6.450684776913855,0
3286,-2.6533699791713063,0
3287,0.9544265254262443,0
3288,-0.2800560702089226,0
3289,0.1354032075316623,0
3290,0.03599709604634631,0
3291,0.04024519704626248,0
3292,0.10915257947500194,0
3293,0.09357560664616035,0
3294,-0.00213695008756503,0
3295,0.06191301456302896,0
3296,0.08904010019700123,0
3297,0.12545842097411042,0
3298,-0.013164874676332896,0
3299,0.01048958516871849,0
3300,0.5790744093790783,0
3301,5.475751303429314,0
3302,3.6477094453979864,0
3303,-2.6686233115754994,0
3304,1.6615284626886495,0
3305,-0.7538402457370486,0
3306,0.4057366432547084,0
3307,-0.03322536435484529,0
3308,0.15817666966498842,0
3309,-0.03870849726680481,0
3310,0.055578118112282554,0
3311,0.11220578358741533,0
3312,0.11823503678605805,0
3313,0.10177552084883314,0
3314,0.12039400368703618,0
3315,0.21263550754063953,0
3316,0.06007146203362769,0
3317,1.6952444167748733,0
3318,6.901688611596265,0
3319,0.010616729072679174,0
3320,-0.9235740766850737,0
3321,0.8309500167523176,0
3322,-0.44722973970634416,0
3323,0.16896242717630797,0
3324,0.01783216458156124,0
3325,0.0031677550316664346,0
3326,0.06666752724620731,0
3327,-0.04254473121071542,0
3328,0.07900217835699067,0
3329,0.07659226551756967,0
3330,-0.09870460949207586,0
3331,0.11270500691168425,0
3332,0.036297741536997524,0
3333,0.11247618818533675,0
3334,3.379604876463138,0
3335,6.344007726733984,0
3336,-2.5335702535029148,0
3337,1.0261210812238581,0
3338,-0.3114240872513098,0
3339,0.16706532949001168,0
3340,0.04981863156173469,0
3341,0.07233203798309813,0
3342,0.007703153162432995,0
3343,0.025601343185830648,0
3344,0.03978991925342533,0
3345,0.05902216656171602,0
3346,0.04717173890836106,0
3347,0.04262474040513044,0
3348,0.010158994890747789,0
3349,0.007446376948531282,0
3350,0.5845898168376092,0
3351,5.480386070009282,0
3352,3.61437596112821,0
3353,-2.6895848958786206,0
3354,1.5748182743655221,0
3355,-0.7823440838237229,0
3356,0.3355457410685965,0
3357,-0.09163430943897818,0
3358,0.17793979485663455,0
3359,0.08081643774163642,0
3360,-0.04611300537304669,0
3361,-0.00927068659334325,0
3362,0.022249511121434626,0
3363,0.031737093957740554,0
3364,0.0739072814396641,0
3365,0.05011535741364978,0
3366,-0.033788535019179874,0
3367,1.6232550371163084,0
3368,6.955159201267628,0
3369,-0.09838142966168151,0
3370,-0.9856574842384527,0
3371,0.8490523388641852,0
3372,-0.4328357299428434,0
3373,0.17773539603297348,0
3374,0.004471868143644281,0
3375,-0.034226633172187076,0
3376,0.0243810863686166,0
3377,0.07888927421407724,0
3378,0.022242865527621433,0
3379,0.03912696035862399,0
3380,-0.0012343143799233847,0
3381,0.04456526939355594,0
3382,-0.02112577425975002,0
3383,0.10347732588974103,0
3384,3.506230303183238,0
3385,6.35644508146813,0
3386,-2.6132081469437467,0
3387,1.0213671093339067,0
3388,-0.2974694837102205,0
3389,0.14516251938087169,0
3390,0.018688244250344977,0
3391,0.06693624627316569,0
3392,0.06559400457740627,0
3393,0.01202731491896527,0
3394,0.10348349043758148,0
3395,-0.04901738203897864,0
3396,-0.0347085374031625,0
3397,0.07701528796476984,0
3398,0.05489350384979353,0
3399,-0.07990666227049037,0
3400,0.5151129881111443,0
3401,5.633202084749417,0
3402,3.504320946547609,0
3403,-2.7356575704688404,0
3404,1.6265167323556395,0
3405,-0.7549561922214355,0
3406,0.47393960971146504,0
3407,0.02099162358511507,0
3408,0.06355960426751828,0
3409,0.05303480291939765,0
3410,0.040207268815027924,0
3411,0.06027157543959406,0
3412,0.02561011029209772,0
3413,0.04738481682253813,0
3414,-0.1102995991276275,0
3415,0.009647658644889087,0
3416,0.06379022661229429,0
3417,1.5462771497264922,0
3418,6.973844944023563,0
3419,-0.024241918294714893,0
3420,-1.0300228209965945,0
3421,0.755441390258467,0
3422,-0.35099138050908624,0
3423,0.22023868230565752,0
3424,0.0013051492969447312,0
3425,-0.07180876910705537,0
3426,0.06992300062763522,0
3427,0.10881476845456553,0
3428,0.07857943144592382,0
3429,0.0772260803176352,0
3430,-0.006779761796491,0
3431,0.022010188890095553,0
3432,-0.011415424092523767,0
3433,0.08787153726146196,0
3434,3.438908936045964,0
3435,6.329734152412394,0
3436,-2.6790299474642696,0
3437,1.0018436249007916,0
3438,-0.3263610583267637,0
3439,0.07786234136371098,0
3440,-0.11151999943151944,0
3441,-0.014214916843001236,0
3442,0.010400876623548497,0
3443,0.06027529578225043,0
3444,-0.05502749410007691,0
3445,-0.09135271074297843,0
3446,-0.06965186676890817,0
3447,0.07581275761565553,0
3448,0.0060735421973795185,0
3449,-0.04057114432341979,0
3450,0.46566530137158546,0
3451,5.435572321577359,0
3452,3.6377852033548366,0
3453,-2.713149433423374,0
3454,1.517871048842412,0
3455,-0.783683990413517,0
3456,0.426364744476044,0
3457,-0.07593391274779007,0
3458,0.055964352415097396,0
3459,0.08147311329261994,0
3460,0.002501575783008408,0
3461,0.06629247127947856,0
3462,-0.031356831154323056,0
3463,0.04861592231650771,0
3464,0.10228890669214956,0
3465,0.027223169455086335,0
3466,0.08502437388224433,0
3467,1.587417353000136,0
3468,6.949776818233442,0
3469,-0.15814504113293495,0
3470,-0.9807232034154603,0
3471,0.8481348846577828,0
3472,-0.4955862917100499,0
3473,0.1361219382171516,0
3474,-0.1631101339664412,0
3475,0.06683121036202823,0
3476,0.008887813278418796,0
3477,0.04275190752470887,0
3478,0.08685806321963874,0
3479,0.05192415437786481,0
3480,-0.04701970717842359,0
3481,0.06283411853100901,0
3482,0.062362013098641554,0
3483,0.07720878243139262,0
3484,3.3733793984759832,0
3485,6.216260123137965,0
3486,-2.6527539309251265,0
3487,1.0152007519266852,0
3488,-0.3137059968376269,0
3489,0.10047799019241344,0
3490,-0.03743109667050985,0
3491,0.04249642766254086,0
3492,-0.09372694059065445,0
3493,0.0470553091101504,0
3494,-0.041070815258255136,0
3495,0.0343747309342971,0
3496,-0.1065215590919664,0
3497,-0.02161598929413706,0
3498,-0.024175561179176543,0
3499,0.00016139098374752525,0
3500,0.47352703600743556,0
3501,5.56537165768164,0
3502,3.456749352381785,0
3503,-2.6682382843032233,0
3504,1.4906873245999415,0
3505,-0.8416546568662362,0
3506,0.2680744792275276,0
3507,-0.0102781699101811,0
3508,0.008803415379216573,0
3509,0.00998066653347757,0
3510,0.03412138989283656,0
3511,-0.008863121458873883,0
3512,0.05897747033144067,0
3513,0.01543657925399913,0
3514,0.043798189911251104,0
3515,0.029436527907180213,0
3516,-0.09049572098096378,0
3517,1.5944938015471437,0
3518,6.874135170393557,0
3519,-0.11898770875723796,0
3520,-0.999174742359873,0
3521,0.798279355322991,0
3522,-0.35988362404792296,0
3523,0.20389736396778366,0
3524,0.07704032722996246,0
3525,0.003212858652800868,0
3526,0.09681695411401534,0
3527,0.0389713926665266,0
3528,-0.03347923572606516,0
3529,-0.005815056172053409,0
3530,-0.00153320209067161,0
3531,0.002685897786825049,0
3532,0.03309564966716417,0
3533,0.036992506872487965,0
3534,3.4697176269004038,0
3535,6.29710925944539,0
3536,-2.7189900367972895,0
3537,0.9926158123132964,0
3538,-0.30499825300271816,0
3539,0.1108571218863666,0
3540,-0.06251025733402595,0
3541,-0.03383541018894564,0
3542,-0.09069719952409036,0
3543,0.034423247187876954,0
3544,-0.0074976648687638744,0
3545,-0.0632949078709763,0
3546,0.00983217856060881,0
3547,-0.1041508494522288,0
3548,0.020549285530521565,0
3549,-0.057930966310548046,0
3550,0.4928726213133763,0
3551,5.5022133473643775,0
3552,3.470572943369057,0
3553,-2.7526555761653846,0
3554,1.5474688530806004,0
3555,-0.7401066770550353,0
3556,0.311800882085998,0
3557,-0.09754535692093723,0
3558,-0.021456170861237668,0
3559,-0.08620324918452353,0
3560,0.013036943265196185,0
3561,-0.04898187744877637,0
3562,-0.06878919117217214,0
3563,0.10659179381310241,0
3564,0.06765241843508497,0
3565,-0.006317310044121433,0
3566,-0.04686094248812708,0
3567,1.5676099244549764,0
3568,6.8914280645200705,0
3569,-0.1822648741415988,0
3570,-1.068090127487791,0
3571,0.6781717833650077,0
3572,-0.49520262794355674,0
3573,0.15694794912270676,0
3574,-0.12908690246321203,0
3575,-0.0679654376790449,0
3576,0.013527135847539631,0
3577,-0.09050751758949711,0
3578,-0.01980796667498983,0
3579,-0.030432351786428016,0
3580,-0.07679322047738019,0
3581,0.0017440386108950896,0
3582,-0.06991772025364511,0
3583,0.10102760984768348,0
3584,3.349065694858107,0
3585,6.191818427553725,0
3586,-2.6848194615793615,0
3587,1.068273948800056,0
3588,-0.3713305416357386,0
3589,0.14234580864801372,0
3590,-0.08191509510012909,0
3591,0.02839107866400242,0
3592,-0.07155697208507979,0
3593,0.020348158846831818,0
3594,-0.006992716184721293,0
3595,-0.02317613537936458,0
3596,-0.08530478925190586,0
3597,-0.0457949039833945,0
3598,0.05681452298951097,0
3599,0.031974587367199866,0
3600,0.5071791050746532,0
3601,5.605479413917105,0
3602,3.512066711019223,0
3603,-2.731194446441887,0
3604,1.6153111382707284,0
3605,-0.7751163801689142,0
3606,0.3754899747528741,0
3607,-0.08794680242539044,0
3608,0.058698409802328495,0
3609,0.06686669196628271,0
3610,0.08235785541119417,0
3611,-0.01549173546517578,0
3612,-0.04558587341701566,0
3613,-0.024451017061354063,0
3614,-0.010979022648297955,0
3615,0.03339554530615514,0
3616,-0.016734105356651395,0
3617,1.5954690378170675,0
3618,6.9740514093519215,0
3619,-0.11487710099866263,0
3620,-0.8154307206250804,0
3621,0.8134184671594451,0
3622,-0.30676389575561314,0
3623,0.2131931854010826,0
3624,-0.00909985033222081,0
3625,-0.014870257299544463,0
3626,0.04590285812969887,0
3627,0.06444812794143656,0
3628,-0.004780415132192914,0
3629,0.02836939001365977,0
3630,0.028888345537563438,0
3631,-0.0897979785300406,0
3632,0.022998090211664345,0
3633,0.0733035729305403,0
3634,3.48670416317187,0
3635,6.2484719660855506,0
3636,-2.6972173846023275,0
3637,1.0349954003824389,0
3638,-0.346459253303362,0
3639,0.09812930955881821,0
3640,0.05364448642704795,0
3641,0.03680649278899808,0
3642,0.035454006399441226,0
3643,0.024788017947242384,0
3644,0.06047561656540447,0
3645,0.04783539001375718,0
3646,0.039401646137319474,0
3647,0.011968148861950752,0
3648,0.05699529076317443,0
3649,0.000718287580010489,0
3650,0.5980933816394166,0
3651,5.586876920728672,0
3652,3.4555655766839957,0
3653,-2.7056187164474936,0
3654,1.5262706131983879,0
3655,-0.7083699541146533,0
3656,0.32542306336498794,0
3657,-0.11687288783092432,0
3658,0.04882366681026616,0
3659,0.07950211752858788,0
3660,0.08006890026251215,0
3661,-0.00819371780116225,0
3662,0.07609558621868637,0
3663,0.09253842948333493,0
3664,0.049653999428745994,0
3665,0.03973886557215963,0
3666,0.07157067826589802,0
3667,1.6685648640254334,0
3668,7.0071158296507186,0
3669,-0.08650561947269574,0
3670,-0.9078521379121927,0
3671,0.8604576074420494,0
3672,-0.4269258897611907,0
3673,0.16789457718497294,0
3674,0.02512519777786233,0
3675,0.10578730245918608,0
3676,-0.00877277210481995,0
3677,0.06197550646431585,0
3678,0.07594982482550654,0
3679,0.0916600342989981,0
3680,0.06902538427465477,0
3681,0.010836321211484826,0
3682,0.0994977193389105,0
3683,0.06189982354327872,0
3684,3.515866476466132,0
3685,6.340334259534896,0
3686,-2.682571390517741,0
3687,1.075905125774676,0
3688,-0.3523782493602703,0
3689,0.16705280586334226,0
3690,-0.053438866574371684,0
3691,-0.0333801185586077,0
3692,0.040817882373522726,0
3693,-0.07577164776982294,0
3694,0.062381038889164346,0
3695,-0.06522493246067937,0
3696,-0.006022073239024414,0
3697,-0.04785403393403825,0
3698,0.07784336705877223,0
3699,0.0058848446996789955,0
3700,0.5105707757803954,0
3701,5.610289646199413,0
3702,3.4275031700127148,0
3703,-2.6374266355644447,0
3704,1.676435852226023,0
3705,-0.6431197716417523,0
3706,0.4617080111005798,0
3707,-0.15619621029247743,0
3708,0.17103246500123281,0
3709,-0.06626915257916936,0
3710,0.041822512021898586,0
3711,-0.018790515670615675,0
3712,0.11879368488637504,0
3713,0.04581350065220393,0
3714,0.019949230621732157,0
3715,0.0850642690349254,0
3716,0.09364118460929793,0
3717,1.676645527218632,0
3718,6.8878160574698155,0
3719,-0.27598247357350764,0
3720,-0.8971737251216977,0
3721,0.9221132705774935,0
3722,-0.27574480310708166,0
3723,0.2483903097865479,0
3724,-0.008281032361169111,0
3725,0.004528028071521757,0
3726,0.06772794378165309,0
3727,0.013270296162854835,0
3728,-0.010868625728499469,0
3729,0.002477737084564856,0
3730,0.05380721856132141,0
3731,0.05562412134205487,0
3732,0.05351608161385797,0
3733,0.14803934770353003,0
3734,3.584769095928643,0
3735,6.28359251076365,0
3736,-2.7207653288578344,0
3737,1.0784162949417306,0
3738,-0.3476707146037029,0
3739,0.16531046154707238,0
3740,-0.004294900110431984,0
3741,0.09563158116995413,0
3742,0.014038909406276934,0
3743,0.0435335802267707,0
3744,0.05186641782640389,0
3745,0.10119853327223362,0
3746,-6.109465709335307e-05,0
3747,0.04683532568487604,0
3748,0.05237794025875577,0
3749,0.04645294536477623,0
3750,0.5316412013736764,0
3751,5.658562237879077,0
3752,3.394944966337799,0
3753,-2.6934739283963833,0
3754,1.5721763151768555,0
3755,-0.8431608769629648,0
3756,0.33083864437910465,0
3757,-0.008325179024609747,0
3758,0.08192631672055976,0
3759,0.053020097634081914,0
3760,-0.003928902957949579,0
3761,0.04988783628276501,0
3762,0.02713509231545236,0
3763,0.029449616202090682,0
3764,0.0928689577810117,0
3765,0.07781133109475405,0
3766,0.04522077391010106,0
3767,1.6895115748191512,0
3768,7.025467043541803,0
3769,-0.21995220854274145,0
3770,-0.8915056972400486,0
3771,0.7987858440346266,0
3772,-0.3886815018491221,0
3773,0.16689243682610036,0
3774,0.011657371510230004,0
3775,0.07686941617058501,0
3776,0.015704842410903863,0
3777,0.07456829233422074,0
3778,-0.0007910329018438848,0
3779,-0.04601435454867906,0
3780,0.04629819327224556,0
3781,-0.12801380321185948,0
3782,-0.022230362672841116,0
3783,0.0017238955361944114,0
3784,3.449372906669481,0
3785,6.186230695251768,0
3786,-2.758804211684112,0
3787,1.0998129981837967,0
3788,-0.43767515339540686,0
3789,0.19487755149050268,0
3790,-0.04294081289631216,0
3791,0.08061231317641246,0
3792,-0.013272744928069204,0
3793,-0.04906404765279563,0
3794,0.04181345276575903,0
3795,-0.04562831787228428,0
3796,0.07303185769777816,0
3797,0.056831164616674784,0
3798,-0.05477452162376727,0
3799,0.007583374217025925,0
3800,0.6279935595694903,0
3801,5.60443051027806,0
3802,3.391869196874117,0
3803,-2.706560580983167,0
3804,1.5708674688533333,0
3805,-0.8087566852202344,0
3806,0.29899609426361295,0
3807,-0.11720493919832754,0
3808,0.07970772906329245,0
3809,-0.004044691202159692,0
3810,0.007995457027925864,0
3811,-0.07256642287783449,0
3812,0.07268799659022603,0
3813,-0.062187414434619906,0
3814,0.01777510789623575,0
3815,-0.05118898772252825,0
3816,0.15983134052254766,0
3817,1.7748459307018984,0
3818,7.00797836900079,0
3819,-0.16775793274776002,0
3820,-0.8123579084427371,0
3821,0.7789743738817042,0
3822,-0.3135340719527783,0
3823,0.15192195786760507,0
3824,0.0671891554043808,0
3825,0.04977573546569357,0
3826,0.023958635667783654,0
3827,-0.017458427848511787,0
3828,0.02670855075314024,0
3829,0.019659149203114644,0
3830,0.07581521010161413,0
3831,0.06542677219928408,0
3832,0.07771345598785946,0
3833,0.22828743816578448,0
3834,3.58387949108132,0
3835,6.280506083184218,0
3836,-2.7514972736156778,0
3837,1.0916208071206317,0
3838,-0.29013967761814574,0
3839,0.1671744996065295,0
3840,-0.04990837060589947,0
3841,0.11482109026940357,0
3842,0.1013794750328144,0
3843,0.12087243320482088,0
3844,0.010663389275672598,0
3845,0.048147641090038974,0
3846,0.03595645187674954,0
3847,0.07268360310133727,0
3848,-0.04191538062526152,0
3849,0.025682202030107033,0
3850,0.5522155477854582,0
3851,5.576682970773051,0
3852,3.4570923195765975,0
3853,-2.6116242624253783,0
3854,1.55998724245511,0
3855,-0.7155322063363906,0
3856,0.3518552592406192,0
3857,-0.17112514972432752,0
3858,0.04585076272617913,0
3859,0.054450023012488184,0
3860,-0.0510722599298659,0
3861,0.07108341503599123,0
3862,0.020305401346194442,0
3863,-0.002844360784940124,0
3864,0.029393500781963885,0
3865,0.02993082417408571,0
3866,0.08680375646850713,0
3867,1.7199631422920332,0
3868,6.9556360950349045,0
3869,-0.28337473438813043,0
3870,-0.8999120394014918,0
3871,0.6818197714566065,0
3872,-0.2993598082537109,0
3873,0.0727065627639533,0
3874,-0.026815398254725703,0
3875,0.028700624653110917,0
3876,-0.014661291388334306,0
3877,-0.07545458890168821,0
3878,-0.027048947778142825,0
3879,-0.014615384826528561,0
3880,-0.020121273967557037,0
3881,0.03997791288011422,0
3882,-0.027154996263546824,0
3883,0.15743707466141157,0
3884,3.53754980718498,0
3885,6.14105157639839,0
3886,-2.7977002304575302,0
3887,1.1045593126349202,0
3888,-0.43532628281411045,0
3889,0.13162498755170585,0
3890,-0.08155082001663075,0
3891,-0.02609726820410247,0
3892,-0.050691240210530175,0
3893,-0.039818881108916834,0
3894,-0.014239431294806872,0
3895,0.006621707072535454,0
3896,0.0007184963500433267,0
3897,0.06617017793064106,0
3898,-0.028950481687201116,0
3899,-0.06031488474531958,0
3900,0.4196461962528425,0
3901,5.680004179021316,0
3902,3.3000031721021723,0
3903,-2.655113008139421,0
3904,1.524328834946381,0
3905,-0.8666120289158814,0
3906,0.3000273581246836,0
3907,-0.12166315813790836,0
3908,-0.06577103620182087,0
3909,0.016587501627587382,0
3910,-0.05071518223936486,0
3911,0.040785346768359675,0
3912,0.06807400161868048,0
3913,0.030613681346008222,0
3914,-0.006500959450315095,0
3915,-0.046468631313104705,0
3916,-0.044605253376035395,0
3917,1.5841164923950728,0
3918,6.947070231899141,0
3919,-0.34033490204652644,0
3920,-0.9450320614945174,0
3921,0.6877899177461697,0
3922,-0.453771398473846,0
3923,0.08949237027158968,0
3924,-0.07216142679772214,0
3925,-0.09917121710093121,0
3926,-0.059566085231391994,0
3927,-0.004814564538428823,0
3928,-0.028703807278607003,0
3929,-0.07821797089263954,0
3930,-0.07248986398633134,0
3931,0.029583801218169895,0
3932,0.09344417414113276,0
3933,0.129845938895566,0
3934,3.5252963909794124,0
3935,6.194458516186762,0
3936,-2.716892880424365,0
3937,1.2077213328614382,0
3938,-0.3000943987353023,0
3939,0.20584500603447778,0
3940,0.019314629253114217,0
3941,0.049653382411062166,0
3942,0.07369773051311934,0
3943,-0.042403820078073404,0
3944,0.12138448415634967,0
3945,0.0572555377399808,0
3946,0.10321838970906097,0
3947,0.024296199522516045,0
3948,0.020725701126095064,0
3949,-0.02408572419784778,0
3950,0.5658616483374863,0
3951,5.63305904109607,0
3952,3.32723839385083,0
3953,-2.7148632959778194,0
3954,1.535254321640963,0
3955,-0.7712940335919745,0
3956,0.25033629051992157,0
3957,-0.15557327645416114,0
3958,-0.008060162690332367,0
3959,-0.017838130768841574,0
3960,0.11678186574680172,0
3961,0.021915409747578503,0
3962,0.07048343755070705,0
3963,0.032067534848323226,0
3964,0.08962413708029156,0
3965,0.04582833074593369,0
3966,0.11854015953603039,0
3967,1.7454021659822763,0
3968,7.006815185255197,0
3969,-0.32280322879534973,0
3970,-0.8572648177056283,0
3971,0.7111936682308794,0
3972,-0.3563480613867102,0
3973,0.14000956661641678,0
3974,-0.059250504728023304,0
3975,0.016968615515246796,0
3976,-0.04999264349622434,0
3977,0.033250133916751766,0
3978,0.02965735431477649,0
3979,-0.0022215154341993816,0
3980,-0.0013497490897036966,0
3981,-0.014747077600074952,0
3982,-0.04258130934669359,0
3983,0.14144147684192657,0
3984,3.5089259033143017,0
3985,6.107053248639051,0
3986,-2.8346748082689346,0
3987,1.0591966717757024,0
3988,-0.39811680170859987,0
3989,0.11861089093749308,0
3990,-0.07051481770749363,0
3991,-0.018683884978681484,0
3992,-0.10011633900071833,0
3993,-0.09641526645620727,0
3994,-0.09321679172505491,0
3995,-0.04578726329336719,0
3996,-0.11576215607175747,0
3997,-0.13712928564760435,0
3998,-0.03204421885123506,0
3999,0.013045527865982724,0
4000,0.5544300154536406,0
4001,5.690497155113328,0
4002,3.311216844074935,0
4003,-2.7728889723135843,0
4004,1.5016190375389757,0
4005,-0.7090405018586342,0
4006,0.2924576301365104,0
4007,-0.07678313379558971,0
4008,-0.00026807061435392496,0
4009,0.040284909287568796,0
4010,0.03801071756345835,0
4011,-0.09560212373693117,0
4012,-0.09222591115301136,0
4013,-0.12764026327173011,0
4014,-0.11201760015069992,0
4015,-0.0432356363059526,0
4016,-0.06373427632202004,0
4017,1.6574217165880378,0
4018,7.003537479868025,0
4019,-0.379510503131227,0
4020,-0.9366115616506658,0
4021,0.6352120332576974,0
4022,-0.3982316385477835,0
4023,0.15672538730825325,0
4024,-0.021483467597746525,0
4025,0.026603535829197174,0
4026,0.04559602112788646,0
4027,-0.08949173788575922,0
4028,-0.16795118541678578,0
4029,-0.06296049030299278,0
4030,-0.0004280253105080037,0
4031,-0.031698947113826925,0
4032,-0.11485661670775406,0
4033,0.14598861459482693,0
4034,3.441969705253418,0
4035,6.110261051874289,0
4036,-2.8011656605081448,0
4037,1.124505099776011,0
4038,-0.3760251837246166,0
4039,0.12207614051910376,0
4040,-0.07587913202840708,0
4041,0.03643789852053017,0
4042,-0.16653398285923962,0
4043,-0.022112483778732997,0
4044,0.02159421365632421,0
4045,-0.026001030917798342,0
4046,0.0037606634833826924,0
4047,0.059420542680412726,0
4048,-0.003961281271839015,0
4049,0.12710756553490074,0
4050,0.5145933305193942,0
4051,5.691166971033614,0
4052,3.282104095150002,0
4053,-2.6577392360488417,0
4054,1.556771664836132,0
4055,-0.7435029058078084,0
4056,0.42234720497618294,0
4057,-0.14529424153118595,0
4058,0.061298617177730635,0
4059,-0.02282902178742766,0
4060,0.010350107897233042,0
4061,0.04572813435351628,0
4062,0.003294579717144862,0
4063,0.01675228516528003,0
4064,0.08601415844995298,0
4065,0.02088669570333436,0
4066,0.000827747927641718,0
4067,1.729273937385946,0
4068,7.001294055712135,0
4069,-0.3972676845780983,0
4070,-0.7450929133050905,0
4071,0.7238882284316651,0
4072,-0.36639014461751557,0
4073,0.133718150954729,0
4074,0.01696688531449648,0
4075,-0.02474785847390127,0
4076,0.02518744221572935,0
4077,0.024245465537770947,0
4078,-0.05139771976489177,0
4079,-0.04646693134218292,0
4080,-0.08237645630164493,0
4081,0.01575022713311794,0
4082,0.029697165019218895,0
4083,0.07089091892171982,0
4084,3.581270525233157,0
4085,6.196349345683044,0
4086,-2.816992933378305,0
4087,1.0886607413888332,0
4088,-0.38514179813574967,0
4089,0.12907901509009356,0
4090,-0.013551400286027637,0
4091,0.006474154697605266,0
4092,-0.058480411979274394,0
4093,-0.0177503251175833,0
4094,0.04955178616958415,0
4095,-0.03903565351198072,0
4096,-0.11854257450401609,0
4097,-0.020594600882117058,0
4098,-0.10335352099879092,0
4099,-0.06769565640184766,0
4100,0.5418497231298188,0
4101,5.705969455109184,0
4102,3.216838944642465,0
4103,-2.645998996161986,0
4104,1.5728850888881845,0
4105,-0.8918837365836463,0
4106,0.3271774546832304,0
4107,-0.09029810455443762,0
4108,-0.006755657758359261,0
4109,0.0032985679463900727,0
4110,-0.04438902498790953,0
4111,0.022091769600813403,0
4112,0.02388994539900907,0
4113,-0.011322522026207045,0
4114,-0.025754512494728717,0
4115,-0.03588992780634759,0
4116,-0.05496482919472488,0
4117,1.608837970637621,0
4118,6.887870149822884,0
4119,-0.44406274447177113,0
4120,-0.7916534356569415,0
4121,0.7247391441605795,0
4122,-0.36788150007148135,0
4123,0.1289209164835819,0
4124,-0.05715091331975529,0
4125,0.08444637405959107,0
4126,-0.09284450464278349,0
4127,-0.01141349649677576,0
4128,-0.033036492172406895,0
4129,0.0017821728570648725,0
4130,-0.10572993249850358,0
4131,-0.07615391372348089,0
4132,-0.08955574481744114,0
4133,0.08894557926659213,0
4134,3.5838473068161814,0
4135,6.120689956925304,0
4136,-2.8416393305571557,0
4137,1.1513074097135054,0
4138,-0.4768876112720695,0
4139,0.1641977006822869,0
4140,-0.08050690411307643,0
4141,0.057113718543759566,0
4142,0.10568045552677405,0
4143,0.0334950258275947,0
4144,0.048358786596445255,0
4145,0.0572795430156996,0
4146,-0.11154404133249513,0
4147,-0.040503865194226565,0
4148,-0.01514264887306331,0
4149,-0.02789706138637417,0
4150,0.5981942525190558,0
4151,5.793490043544028,0
4152,3.084626151291,0
4153,-2.627182011113687,0
4154,1.6249377298253378,0
4155,-0.7652582773854915,0
4156,0.31543353969798177,0
4157,-0.12133914910091753,0
4158,0.058337243485923604,0
4159,-0.022706554612343055,0
4160,-0.004823790157864719,0
4161,-0.04497456626307782,0
4162,0.0056377612387637395,0
4163,0.0781215539362341,0
4164,0.017438795794854328,0
4165,0.06904070546082482,0
4166,0.019552013122946982,0
4167,1.7463610716296722,0
4168,6.950781955232534,0
4169,-0.3645679831049329,0
4170,-0.8097272043985723,0
4171,0.7123109302356854,0
4172,-0.3510693841650322,0
4173,0.11092853587976827,0
4174,-0.07070636869258962,0
4175,0.024905993639521652,0
4176,0.05965160124931679,0
4177,0.01869245682272629,0
4178,0.02343793682462487,0
4179,-0.006652087155708367,0
4180,-0.002411219920603589,0
4181,0.0677396621284565,0
4182,-0.06737567344172371,0
4183,0.16841491717906434,0
4184,3.556920370993345,0
4185,6.089088303879836,0
4186,-2.859081210123062,0
4187,1.1580201828530783,0
4188,-0.4662790574197115,0
4189,0.25502057671230455,0
4190,-0.041608214449843875,0
4191,0.04486813112607955,0
4192,-0.08132126067241545,0
4193,0.019080583427018065,0
4194,0.051699789220435076,0
4195,0.054140840784853025,0
4196,0.10541887533717532,0
4197,0.03000975383764535,0
4198,-0.03259684698131249,0
4199,0.004499630937935272,0
4200,0.5712971982606545,0
4201,5.716808710133704,0
4202,3.189482112938479,0
4203,-2.7152000827260014,0
4204,1.5445467454226978,0
4205,-0.8359126318837211,0
4206,0.3084058017891912,0
4207,-0.18087773669554152,0
4208,0.01663382024154029,0
4209,-0.05781052526703569,0
4210,0.0014435398076973888,0
4211,0.04168143122806756,0
4212,-0.0333416423202029,0
4213,0.0931555987128495,0
4214,0.06021957051119119,0
4215,-0.17004946580642413,0
4216,-0.005818919241080552,0
4217,1.8453843998753823,0
4218,6.9138967411782675,0
4219,-0.3873136240141032,0
4220,-0.7833892217040392,0
4221,0.6631696937777297,0
4222,-0.2876835438996199,0
4223,0.11531808137124977,0
4224,-0.07335366791385696,0
4225,0.09097057150798805,0
4226,0.006998624975308262,0
4227,-0.05484525607740224,0
4228,-0.01351623998540519,0
4229,-0.046110395417474984,0
4230,-0.011086338969329276,0
4231,-0.08333877769943504,0
4232,0.11021847152331855,0
4233,0.08551311365799359,0
4234,3.595338958365177,0
4235,6.056659852502774,0
4236,-2.90450086363064,0
4237,1.1224396635728175,0
4238,-0.4798988933397079,0
4239,0.045995852529344086,0
4240,-0.18807370762981748,0
4241,0.009994310014777102,0
4242,0.004239745060273567,0
4243,-0.03314428546180759,0
4244,0.022351847679900436,0
4245,-0.02261949770372236,0
4246,0.008316719103202395,0
4247,-0.02956489595912183,0
4248,0.11097026382727893,0
4249,0.026080826999364735,0
4250,0.6082213683988669,0
4251,5.7846788758693535,0
4252,3.1282475686120463,0
4253,-2.6050151073661305,0
4254,1.5295139982630417,0
4255,-0.8775351907395741,0
4256,0.3297649992519114,0
4257,-0.14302895776221258,0
4258,-0.002303679107569607,0
4259,-0.04582174616313356,0
4260,-0.04175386352395776,0
4261,-0.03696672732258157,0
4262,-0.05219161098956926,0
4263,-0.08959039152070664,0
4264,-0.07271061863318688,0
4265,0.0004970616045276918,0
4266,-0.04277137284067638,0
4267,1.705590828820753,0
4268,6.917314611962169,0
4269,-0.5730007001425678,0
4270,-0.7252020792321303,0
4271,0.6944292087453986,0
4272,-0.27495572877207003,0
4273,0.16231497429854785,0
4274,-0.057053541502811174,0
4275,0.11317091190079392,0
4276,0.0038984347390523047,0
4277,0.05415624878662935,0
4278,0.052243214217683034,0
4279,0.09713138397189104,0
4280,0.08577766921387545,0
4281,-0.0036647717816694226,0
4282,0.07885167677652756,0
4283,0.073883650130357,0
4284,3.62962578705664,0
4285,6.031767055214088,0
4286,-2.8338056135618133,0
4287,1.0702916199527004,0
4288,-0.430443876725805,0
4289,0.10967753381707632,0
4290,-0.06293297704088086,0
4291,-0.016999759494438913,0
4292,-0.11348856605117862,0
4293,-0.04588879519713411,0
4294,-0.10128978638605027,0
4295,0.06409709049200442,0
4296,-0.017024459857050537,0
4297,-0.030244198615268458,0
4298,0.0007355480521017222,0
4299,0.04133162048762425,0
4300,0.572925650017511,0
4301,5.8066459170059215,0
4302,3.12477828907775,0
4303,-2.591580768683893,0
4304,1.5156170079671947,0
4305,-0.7158212338092305,0
4306,0.4038819265729247,0
4307,-0.02191345496436925,0
4308,0.10222917682896959,0
4309,0.051096830964887215,0
4310,-0.01486560598929031,0
4311,0.07474327088615637,0
4312,0.010784945153501244,0
4313,0.013666935708720185,0
4314,-0.0165833690677726,0
4315,-0.010122580783600555,0
4316,0.040078569829764224,0
4317,1.732948541241507,0
4318,6.916773534528237,0
4319,-0.5064130445131173,0
4320,-0.7681920604996124,0
4321,0.6634560574569194,0
4322,-0.38793022472169414,0
4323,0.19506950080292912,0
4324,-0.05129069031867363,0
4325,-0.04319525902246679,0
4326,0.02770407769124899,0
4327,-0.07909437847949956,0
4328,-0.06078520242617366,0
4329,0.012545647345967838,0
4330,-0.06474575670520616,0
4331,-0.11770633598344124,0
4332,-0.06694578529552794,0
4333,0.0692194729518439,0
4334,3.529964620404303,0
4335,5.945530954345029,0
4336,-2.8241968356017395,0
4337,1.0329614688235997,0
4338,-0.35343048039536185,0
4339,0.08819602374494334,0
4340,-0.1661731084674135,0
4341,-0.00028498006110288555,0
4342,0.007327857043544252,0
4343,0.003794467562749773,0
4344,0.034273296608838794,0
4345,0.02780864977212739,0
4346,-0.016327090637477237,0
4347,-0.013948244924803125,0
4348,0.017146404313525536,0
4349,-0.06632224590298036,0
4350,0.6258409530626852,0
4351,5.626055924822769,0
4352,3.083667174604067,0
4353,-2.694994410407619,0
4354,1.4784339759633454,0
4355,-0.8334260340505025,0
4356,0.3263474385466875,0
4357,-0.07228169704894227,0
4358,0.042709852831610856,0
4359,-0.09169674320738844,0
4360,0.012771387670379403,0
4361,0.0013729079336738878,0
4362,0.07307712344819925,0
4363,-0.010477594664362612,0
4364,-0.1317944758703584,0
4365,0.04051317532716567,0
4366,-0.011801547236617095,0
4367,1.8392271566681875,0
4368,6.9618366441161035,0
4369,-0.5346083647024893,0
4370,-0.7744855088382355,0
4371,0.7110188801689539,0
4372,-0.43586167085793825,0
4373,0.08105776398979783,0
4374,-0.024410159256308538,0
4375,-0.018739349879778114,0
4376,0.059382912934289676,0
4377,0.00019258687050678538,0
4378,0.04421373280907864,0
4379,-0.01093654196589605,0
4380,-0.037896801282819935,0
4381,0.03459136699141959,0
4382,0.06119767369364875,0
4383,0.1265633053920938,0
4384,3.671642660304536,0
4385,6.025789937777943,0
4386,-2.8514666060933296,0
4387,1.1777064919396236,0
4388,-0.4368963163528351,0
4389,0.14009939819886133,0
4390,-0.0853920754731208,0
4391,0.013356294457105731,0
4392,0.008999037260400852,0
4393,-0.02446780219652037,0
4394,-0.047534408530141584,0
4395,-0.07461544406069352,0
4396,0.0303716275577754,0
4397,0.037963956848188776,0
4398,-0.006455690962250961,0
4399,0.07859126809077639,0
4400,0.5885055899990846,0
4401,5.787598173516723,0
4402,3.0902597475822393,0
4403,-2.5852480555692128,0
4404,1.5881209758610753,0
4405,-0.8434067119943273,0
4406,0.3591533395635059,0
4407,-0.09270019024126107,0
4408,-0.034883428515015746,0
4409,0.025007594110266575,0
4410,0.05405310601388953,0
4411,0.007759713509239392,0
4412,0.013860427618216417,0
4413,0.07973739080102113,0
4414,0.013079019453564777,0
4415,0.049750196996078716,0
4416,-0.004102982095209595,0
4417,1.7720410600139975,0
4418,6.937585620523167,0
4419,-0.4028740543486275,0
4420,-0.759324711342416,0
4421,0.6642110827759918,0
4422,-0.22587368298855778,0
4423,0.141174087129519,0
4424,-0.001841718679915956,0
4425,0.07177932867758341,0
4426,0.003236078553382385,0
4427,0.012850050629241775,0
4428,-0.0178556027294515,0
4429,-0.02403984539356179,0
4430,0.030778436320361802,0
4431,0.004130657866983342,0
4432,0.07185909724410317,0
4433,0.22621484131814468,0
4434,3.7242616553161296,0
4435,5.981427311316218,0
4436,-2.750555996216695,0
4437,1.2122812715336264,0
4438,-0.45226319911286506,0
4439,0.20497644361286155,0
4440,-0.0007374182119252864,0
4441,0.0073122430312237766,0
4442,0.004705046939456673,0
4443,0.07994654516206867,0
4444,0.03087268397197662,0
4445,0.05748695001903646,0
4446,0.03256469845781027,0
4447,-0.03132104746962121,0
4448,0.012736810049588418,0
4449,0.08647229015223605,0
4450,0.6395296662679166,0
4451,5.85881496158765,0
4452,3.0180933859107175,0
4453,-2.5957756194416532,0
4454,1.5716094277245936,0
4455,-0.8153632407215136,0
4456,0.38686867453994755,0
4457,-0.023484486859952185,0
4458,0.15223263079509386,0
